participant_id,sample_id,timestamp,segment_id,BPM,ECG,RESP,label
6,0,500,1,0.2594214,0.016016012,2.1378987,0.2779
6,0,1000,1,0.37163472,-0.006092687,2.3824165,0.3229
6,0,1500,1,0.42698264,0.022346882,1.7965577,0.3686
6,0,2000,1,0.43592596,-0.02735539,1.4538684,0.4155
6,0,2500,1,0.43721348,-0.10073145,1.2636213,0.4628
6,0,3000,1,0.30795294,0.07954562,1.1064881,0.5105
6,0,3500,1,0.027472476,-0.7920654,0.7870414,0.5587
6,0,4000,1,-0.048927218,-0.20680997,0.6029581,0.6071
6,0,4500,1,-0.035677183,0.13699345,0.45719624,0.6413
6,0,5000,1,0.028321309,0.036578417,0.029229078,0.663
6,0,5500,1,0.115282156,0.11307056,-0.75641406,0.6798
6,0,6000,2,0.20868105,0.09472655,-1.4977211,0.6925
6,0,6500,2,0.2776322,0.32619578,0.8404401,0.7019
6,0,7000,2,0.5178406,-0.6295307,0.70887387,0.7097
6,0,7500,2,0.5178406,0.061732702,0.5606868,0.716
6,0,8000,2,0.5656439,-0.03394476,0.41882518,0.7201
6,0,8500,2,0.5746141,-0.15929788,-0.018673446,0.7229
6,0,9000,2,0.60175973,-0.098663464,-0.14373359,0.7244
6,0,9500,2,0.64493847,-0.1776842,-0.48602772,0.7241
6,0,10000,2,0.7047405,-0.069020696,-1.8012776,0.7225
6,0,10500,2,0.767818,-0.03342776,-2.1033282,0.7197
6,0,11000,2,0.829341,-0.060908534,-2.8415751,0.7157
6,0,11500,2,0.8991297,-0.043321215,-3.1148257,0.7106
6,0,12000,2,1.0032736,-0.23912232,1.9975417,0.7043
6,0,12500,2,1.1121917,-0.016667638,1.9810385,0.6969
6,0,13000,2,1.1490492,-0.02935288,1.6513904,0.6884
6,0,13500,2,1.095189,0.1924344,1.3129362,0.679
6,0,14000,2,0.8666821,0.2800937,1.1155542,0.6689
6,0,14500,2,0.41450253,0.06740087,0.8586772,0.6582
6,0,15000,2,-0.14665405,0.14772351,0.80581784,0.6478
6,0,15500,2,-0.42058447,-0.46219268,0.57251394,0.637
6,0,16000,2,-0.46689573,0.37670174,0.54342544,0.6259
6,0,16500,2,-0.511547,0.050269455,0.5721083,0.6145
6,0,17000,2,-0.56468195,-0.43175092,0.44234547,0.603
6,0,17500,2,-0.6600531,0.04203509,0.2741033,0.5915
6,0,18000,2,-0.7275098,0.14268982,-0.23467018,0.5799
6,0,18500,2,-0.8043864,0.11711725,0.06792111,0.5683
6,0,19000,2,-0.705296,-0.53166777,0.2595128,0.5567
6,0,19500,2,-0.6150871,-0.10091475,0.21086036,0.5451
6,0,20000,2,-0.52965915,-0.30394912,-0.06429231,0.5334
6,0,20500,2,-0.45145482,-0.047250398,0.027541868,0.5226
6,0,21000,2,-0.3421895,0.09247526,-0.30747554,0.5117
6,0,21500,2,-0.28873515,-0.07467007,-0.78625363,0.5007
6,0,22000,2,-0.20856734,-0.31445357,-0.73152053,0.4895
6,0,22500,2,-0.07620312,-0.19699171,-1.6555645,0.4771
6,0,23000,2,0.10520752,0.077609226,-2.9755857,0.4646
6,0,23500,2,0.18550552,-0.015896842,-1.1838956,0.4518
6,0,24000,3,0.43150166,-0.4165747,1.3439019,0.4389
6,0,24500,3,0.55335766,-0.0057636886,1.1874334,0.4268
6,0,25000,3,0.6831749,-0.07157748,0.9868045,0.4144
6,0,25500,3,0.6939397,-0.1772894,0.5860907,0.4018
6,0,26000,3,0.5918595,-0.18007179,0.19182162,0.389
6,0,26500,3,0.51341635,0.09592974,0.15406832,0.3761
6,0,27000,3,0.43722945,0.17713597,-0.47726542,0.3632
6,0,27500,3,0.37232128,-0.045962602,0.029769208,0.3504
6,0,28000,3,0.39383453,0.15656887,0.7204296,0.3375
6,0,28500,3,0.4791621,0.13935284,0.7118751,0.3246
6,0,29000,3,0.39334348,0.29671752,0.61133635,0.3119
6,0,29500,3,0.31998748,-0.34816653,0.36187294,0.2994
6,0,30000,3,0.16283612,0.08806668,0.025418412,0.2872
6,0,30500,3,0.10530223,0.076175734,-0.1390157,0.2753
6,0,31000,3,0.018626256,0.11636995,-0.9901533,0.2637
6,0,31500,3,-0.031278536,0.04183299,-1.2072041,0.2532
6,0,32000,3,0.092124335,0.44372344,0.7145483,0.242
6,0,32500,3,0.39704993,0.2351572,0.65248305,0.2312
6,0,33000,3,0.36358902,-0.23632112,0.46036232,0.2209
6,0,33500,3,0.51321304,-0.09682577,0.3656693,0.2111
6,0,34000,3,0.58607155,0.190216,-0.52983594,0.2016
6,0,34500,3,0.60183746,0.10260371,0.3693761,0.1931
6,0,35000,4,0.7136528,0.07510884,0.42288446,0.1848
6,0,35500,4,0.6219825,-0.09406218,0.5379973,0.1761
6,0,36000,4,0.60609883,0.034510426,0.39712518,0.1677
6,0,36500,4,0.4976691,0.12733969,0.11205936,0.1597
6,0,37000,4,0.35798913,-0.017353835,-0.24882004,0.1521
6,0,37500,4,0.27529982,0.09902233,-0.25657678,0.1451
6,0,38000,4,0.16234443,0.26481876,-1.9464842,0.1384
6,0,38500,4,0.17734592,-0.22956255,-3.1905046,0.132
6,0,39000,4,0.13380857,0.10920248,-3.645832,0.1251
6,0,39500,4,0.11751855,0.0054175598,-0.84934044,0.1187
6,0,40000,4,0.25714287,0.24253617,1.8353935,0.1128
6,0,40500,4,0.35900456,0.0836346,1.6478924,0.1072
6,0,41000,4,0.38333252,0.028442753,1.1490364,0.1017
6,0,41500,4,0.42672935,-0.1117858,0.5473943,0.0965
6,0,42000,4,0.45164087,-0.20301238,0.001111149,0.0907
6,0,42500,4,0.44062614,0.06379129,-1.7124298,0.0851
6,0,43000,4,0.37240294,-0.20404637,0.5814633,0.0799
6,0,43500,4,0.56976104,-0.12307515,1.1360357,0.0747
6,0,44000,4,0.5159049,0.1273632,1.0303737,0.0695
6,0,44500,4,0.63637316,-0.022448612,0.87958175,0.0643
6,0,45000,4,0.5958084,-0.2637267,0.7194926,0.0587
6,0,45500,4,0.46118996,-0.11840337,0.6132398,0.0533
6,0,46000,4,0.2507127,0.03113114,0.20923968,0.0479
6,0,46500,4,0.053228706,-0.036496848,-0.13549334,0.0425
6,0,47000,4,-0.011338716,0.24625856,-0.45477027,0.0369
6,0,47500,4,-0.07703491,-0.6103971,-1.7202128,0.0308
6,0,48000,4,0.040242568,-0.08866191,-0.9030598,0.025
6,0,48500,4,0.1916016,0.23032093,0.9548692,0.0191
6,0,49000,4,0.30364388,0.09949703,0.91520256,0.0132
6,0,49500,4,0.39883405,-0.12962691,0.8100869,0.0074
6,0,50000,4,0.5165178,0.08208831,0.73585,0.0016
6,0,50500,4,0.5703205,0.108013384,0.49000987,-0.0045
6,0,51000,4,0.48279202,0.106725596,0.39589757,-0.0102
6,0,51500,4,0.44462755,0.37382537,0.3463408,-0.0158
6,0,52000,5,0.2019093,-0.37100372,0.09763695,-0.0212
6,0,52500,5,-0.053989448,0.13198797,0.3925786,-0.0263
6,0,53000,5,-0.078787215,0.1489126,0.19921942,-0.0315
6,0,53500,5,-0.06942723,0.048488162,0.1686197,-0.0364
6,0,54000,5,-0.111094676,0.23009533,0.09502998,-0.041
6,0,54500,5,-0.09157739,-0.40137026,-0.0014249185,-0.0452
6,0,55000,6,-0.019659458,0.2533602,0.04896582,-0.0491
6,0,55500,6,0.08855176,0.27062324,-0.86189646,-0.053
6,0,56000,6,0.19800527,0.026073964,-1.6844546,-0.0565
6,0,56500,6,0.30121505,-0.18442397,-0.5945957,-0.0595
6,0,57000,6,0.44124627,0.012472227,0.5900067,-0.0622
6,0,57500,6,0.5746141,-0.14929633,0.57094955,-0.0645
6,0,58000,6,0.5767422,-0.14359525,0.39764315,-0.0666
6,0,58500,6,0.56977165,-0.1547295,0.056744143,-0.0686
6,0,59000,6,0.47147903,-0.008818675,0.06440954,-0.0703
6,0,59500,6,0.32864594,-0.42452705,0.25571442,-0.0717
6,0,60000,6,0.116417035,-0.019746125,0.27060226,-0.0731
6,0,60500,6,-0.12084856,0.18300624,0.0991981,-0.0745
6,0,61000,6,-0.33563548,0.09773453,-0.30491057,-0.0757
6,0,61500,6,-0.6048411,-0.36236045,-0.49119905,-0.077
6,0,62000,6,-0.70696616,0.17112939,0.1802942,-0.0784
6,0,62500,6,-0.7228042,-0.041812524,0.2747733,-0.0799
6,0,63000,6,-0.6274291,-0.36299494,0.33300012,-0.0817
6,0,63500,6,-0.6418535,0.004609164,0.20303126,-0.0834
6,0,64000,6,-0.6540329,0.01653771,0.11674456,-0.0855
6,0,64500,6,-0.66678184,0.060393207,-0.5433196,-0.088
6,0,65000,6,-0.6882375,-0.45009965,-2.0282202,-0.0909
6,0,65500,6,-0.60940903,0.24895164,-3.4399545,-0.0943
6,0,66000,6,-0.49670395,-0.07596727,-4.087335,-0.0985
6,0,66500,6,-0.3341563,0.030153546,-0.98922104,-0.1025
6,0,67000,7,-0.098813325,-0.30199862,2.1203039,-0.1071
6,0,67500,7,0.19037987,0.18239054,1.6871446,-0.1124
6,0,68000,7,0.42914435,-0.023318108,1.4894892,-0.1182
6,0,68500,7,0.54297787,-0.19609872,1.288783,-0.1247
6,0,69000,7,0.5456687,0.009445442,1.0376003,-0.1311
6,0,69500,7,0.33359775,0.1289471,0.75567544,-0.138
6,0,70000,7,0.052402947,-0.12575884,0.25046632,-0.1453
6,0,70500,7,-0.21833737,-0.38242936,0.21409033,-0.1529
6,0,71000,7,-0.34145817,0.10123132,0.065347396,-0.1613
6,0,71500,8,-0.43587857,0.2343864,0.6929344,-0.1692
6,0,72000,8,-0.4726807,0.10326171,0.59184533,-0.1775
6,0,72500,8,-0.38924706,-0.1771719,0.5047553,-0.1859
6,0,73000,8,-0.2834676,0.10462,0.11949073,-0.1943
6,0,73500,8,-0.31756002,0.23936369,-0.052409474,-0.2027
6,0,74000,8,-0.3749042,-0.036919843,-0.5880254,-0.2118
6,0,74500,9,-0.45757377,0.24050108,-0.086104654,-0.2202
6,0,75000,9,-0.3642087,-0.27746943,0.41904435,-0.2285
6,0,75500,9,-0.34161216,0.16218063,0.41086712,-0.2365
6,0,76000,9,-0.28068724,-0.0012564092,0.35637042,-0.2443
6,0,76500,9,-0.19920938,0.026337164,0.31603056,-0.2525
6,0,77000,9,-0.14174193,-0.35569587,0.19141135,-0.2603
6,0,77500,9,-0.10831171,0.2989077,-0.15433511,-0.2675
6,0,78000,9,-0.013635583,0.2797365,0.1883404,-0.2742
6,0,78500,9,0.19533737,0.2812922,0.24605133,-0.2805
6,0,79000,9,0.29948542,0.07036186,0.18639669,-0.2871
6,0,79500,9,0.27231038,-0.19511642,-0.20865382,-0.293
6,0,80000,9,0.22739618,0.027991556,-0.16006002,-0.2984
6,0,80500,9,0.12897108,-0.27196577,-0.37912184,-0.3031
6,0,81000,9,-0.06469536,-0.013203754,-0.47651637,-0.3073
6,0,81500,9,-0.11300705,-0.5196029,-0.5333659,-0.3107
6,0,82000,9,-0.17307705,-0.5380268,-0.97704726,-0.3141
6,0,82500,9,-0.24404518,-0.14114186,-2.380438,-0.3169
6,0,83000,9,-0.2319796,-0.20842676,-3.1417391,-0.3189
6,0,83500,10,-0.29717097,0.22970523,0.06561352,-0.3203
6,0,84000,10,-0.17054123,0.2811136,1.0924845,-0.3212
6,0,84500,10,-0.029255254,-0.04180312,0.82647055,-0.3215
6,0,85000,10,0.054644123,0.037325714,0.6088018,-0.3216
6,0,85500,10,0.12897108,0.20369555,0.26685548,-0.3211
6,0,86000,10,-0.017319193,-0.44441268,-0.04361976,-0.3203
6,0,86500,10,-0.017906703,0.032470636,0.9048809,-0.3193
6,0,87000,10,-0.0049475674,0.18795063,0.75310844,-0.3181
6,0,87500,10,0.034354877,-0.10519643,0.29113007,-0.3167
6,0,88000,10,0.07854962,-0.102056846,-0.17281272,-0.3153
6,0,88500,10,0.06957198,-0.14007027,-0.4626119,-0.3138
6,0,89000,10,0.18550552,-1.0769264,-1.2032849,-0.3125
6,0,89500,10,0.20704809,-0.1555661,-0.39240125,-0.3113
6,0,90000,10,0.4063298,0.07427694,0.8915588,-0.3104
6,0,90500,10,0.43191803,0.19317229,0.750193,-0.3099
6,0,91000,10,0.48731893,0.011776631,0.7723806,-0.3097
6,0,91500,10,0.5272329,0.08885158,0.6339923,-0.3099
6,0,92000,10,0.3974546,0.023272777,0.50428814,-0.3105
6,0,92500,10,0.12829407,0.15544558,0.22522148,-0.3118
6,0,93000,10,-0.13464458,-0.32327074,0.24204281,-0.3135
6,0,93500,10,-0.38575104,0.17524187,-0.14378552,-0.3155
6,0,94000,10,-0.48269475,0.2576983,-0.33771548,-0.3177
6,0,94500,10,-0.49426538,0.5410694,-1.5827045,-0.3203
6,0,95000,10,-0.5296056,-0.27767622,-3.255398,-0.3233
6,0,95500,10,-0.45990038,0.41965955,-1.9700544,-0.3265
6,0,96000,10,-0.27405053,0.4991597,1.3162502,-0.3299
6,0,96500,10,-0.041849736,0.1477799,0.97416705,-0.3335
6,0,97000,10,0.09580626,0.23313151,1.1646333,-0.3369
6,0,97500,10,0.21842681,-0.438016,0.8889732,-0.3403
6,0,98000,10,0.18741496,0.21044001,0.86843514,-0.3434
6,0,98500,10,0.09586619,-0.037685942,0.5324854,-0.3465
6,0,99000,10,-0.0286884,0.18338224,0.17241403,-0.3493
6,0,99500,10,-0.11042783,-0.0070326827,0.0643077,-0.3519
6,0,100000,10,-0.08133191,0.45780927,0.4833623,-0.3541
6,0,100500,10,-0.032834392,-0.33996505,0.48315188,-0.3559
6,0,101000,10,-0.075359814,0.028015057,0.36539385,-0.3576
6,0,101500,10,-0.12926582,0.13790995,0.28737366,-0.3589
6,0,102000,10,-0.1834844,-0.056819554,0.13524726,-0.3599
6,0,102500,11,-0.23212896,0.31678644,-0.70401716,-0.3607
6,0,103000,11,-0.23876864,-0.5896937,-1.5596474,-0.361
6,0,103500,11,-0.23876864,0.006484455,-2.728066,-0.3612
6,0,104000,11,-0.1867066,0.077209726,-4.010026,-0.3612
6,0,104500,11,-0.08891523,-0.15379891,-2.8828928,-0.3611
6,0,105000,11,0.07965767,0.26977724,2.1095524,-0.3611
6,0,105500,11,0.3665186,0.20424074,1.7184691,-0.3611
6,0,106000,11,0.4079762,-0.3027788,1.4756571,-0.3612
6,0,106500,11,0.46944696,-0.13500369,1.2328013,-0.3613
6,0,107000,11,0.35826162,0.012218429,0.5139156,-0.3617
6,0,107500,11,0.16041577,0.048276663,-0.08549479,-0.3625
6,0,108000,11,-0.007844648,0.002616373,-0.18313733,-0.3634
6,0,108500,11,-0.11070926,0.39480138,1.0448732,-0.3646
6,0,109000,11,-0.098813325,-0.15628989,0.91505575,-0.3663
6,0,109500,12,-0.23632222,0.18295924,0.38803288,-0.3684
6,0,110000,12,-0.28411072,0.12387112,-0.17224954,-0.3711
6,0,110500,12,-0.35147664,-0.05727075,-0.42747375,-0.3743
6,0,111000,12,-0.4939084,-0.5241572,-1.6067437,-0.3781
6,0,111500,12,-0.5694845,0.06312859,-3.0209417,-0.3825
6,0,112000,12,-0.573718,0.20456974,-0.59968793,-0.3874
6,0,112500,12,-0.5127918,0.31543753,1.7364166,-0.3929
6,0,113000,12,-0.2857025,-0.24045241,1.4951984,-0.3989
6,0,113500,12,-0.17777948,0.073205344,1.0790861,-0.4053
6,0,114000,12,-0.07785822,-0.018740328,0.585376,-0.4122
6,0,114500,12,-0.054523375,0.10955498,0.013924549,-0.4194
6,0,115000,12,-0.06394743,0.03747611,-0.4435609,-0.4267
6,0,115500,13,-0.04483829,0.28940904,0.48045826,-0.4342
6,0,116000,13,0.0046701888,-0.15299521,0.8775371,-0.4419
6,0,116500,13,-0.13948871,0.021444486,0.9127231,-0.4498
6,0,117000,13,-0.11162937,0.20523244,0.5733027,-0.4577
6,0,117500,13,-0.12447632,-0.060133036,0.18314308,-0.4655
6,0,118000,13,-0.2857025,-0.13829368,-0.19980487,-0.4731
6,0,118500,14,-0.52739173,0.0150008155,-0.6020349,-0.4807
6,0,119000,14,-0.59304684,0.0009760804,-1.8921025,-0.4881
6,0,119500,14,-0.60062814,-0.15727219,-1.897044,-0.4953
6,0,120000,14,-0.43298805,-0.14442246,1.1667737,-0.5025
6,0,120500,14,-0.01546209,-0.27524164,0.7393522,-0.5095
6,0,121000,14,-0.12205892,-1.2875371,0.49001336,-0.5165
6,0,121500,14,-0.1337515,-1.6406794,0.3025673,-0.5237
6,0,122000,14,-0.089267366,-0.8356436,0.16424556,-0.5309
6,0,122500,14,-0.10593863,0.28510857,0.12968548,-0.5382
6,0,123000,14,-0.062397547,-0.0678363,-0.26262617,-0.5459
6,0,123500,14,-0.04508718,0.26698077,-1.9260287,-0.5536
6,0,124000,14,0.0036127958,-0.019168027,-0.39411825,-0.5611
6,0,124500,14,0.105507344,-0.92774904,1.2454737,-0.5686
6,0,125000,14,0.23115663,-0.99395293,0.9996605,-0.5759
6,0,125500,14,0.30695534,-0.27731434,0.8849591,-0.5829
6,0,126000,14,0.32864594,-0.017555933,0.49829563,-0.5897
6,0,126500,14,0.08090348,0.30372047,0.14976713,-0.5963
6,0,127000,14,-0.11844026,0.15444447,-0.32906407,-0.6023
6,0,127500,14,-0.23941208,-0.8885747,-0.9880658,-0.6078
6,0,128000,14,-0.3018603,-0.88906825,-2.508677,-0.6126
6,0,128500,14,-0.32512817,-0.55797356,-0.40196222,-0.6165
6,0,129000,14,-0.22340994,0.53139687,1.0832772,-0.6194
6,0,129500,14,-0.11157891,0.6701543,1.155688,-0.6212
6,0,130000,14,-0.030321732,0.5038127,0.9098535,-0.6217
6,0,130500,14,-0.018734692,0.2765781,0.29576275,-0.6211
6,0,131000,14,-0.13464458,-0.12033036,-0.3962624,-0.6192
6,0,131500,14,-0.14765446,0.22281976,-1.8940666,-0.6161
6,0,132000,14,-0.20237355,0.194493,-3.3700483,-0.6119
6,0,132500,14,-0.21902649,0.19520268,-2.045764,-0.6067
6,0,133000,14,-0.18704048,0.37557375,-3.3210106,-0.6006
6,0,133500,14,-0.12038132,0.1498197,-2.797863,-0.5937
6,0,134000,14,0.002961847,0.45532298,-2.3348227,-0.5859
6,0,134500,14,0.09424979,0.22047918,-1.3028358,-0.5777
6,0,135000,14,0.20592952,0.5404772,3.2430656,-0.5693
6,0,135500,14,0.23749314,0.3003741,2.729595,-0.5608
6,0,136000,14,0.22557598,0.0399906,2.0389662,-0.5525
6,0,136500,15,0.23587428,0.11770004,1.4773551,-0.5445
6,0,137000,15,0.04280089,-0.27018917,0.059637085,-0.5369
6,0,137500,15,-0.18746516,-0.10942171,-2.2294047,-0.5299
6,0,138000,15,-0.316056,0.22838454,1.2897229,-0.5237
6,0,138500,15,-0.39897442,0.019757194,1.7192374,-0.5185
6,0,139000,15,-0.41435468,-0.34062776,1.1717658,-0.5143
6,0,139500,15,-0.403616,0.23354511,-0.3850096,-0.5111
6,0,140000,15,-0.4591119,0.33494714,-1.2508646,-0.5091
6,0,140500,15,-0.5153454,0.058188915,0.33310604,-0.5081
6,0,141000,15,-0.49990174,-0.23574303,1.3288375,-0.5086
6,0,141500,15,-0.47128224,0.15620697,1.1151428,-0.5101
6,0,142000,15,-0.3925918,0.18324594,0.6275274,-0.5125
6,0,142500,15,-0.30621114,-0.11335559,-2.555663,-0.5157
6,0,143000,15,-0.25900868,-0.12832503,-2.3862207,-0.5195
6,0,143500,15,-0.118172154,0.20347464,1.9534591,-0.5237
6,0,144000,15,0.05842143,0.04205859,1.7582762,-0.5285
6,0,144500,15,0.073018715,-0.008940874,1.3990014,-0.5337
6,0,145000,15,0.062993675,-0.18012348,0.82256126,-0.5391
6,0,145500,15,0.054292873,-0.06961759,-0.040587917,-0.5449
6,0,146000,15,-0.07703491,-0.6299302,-0.7051873,-0.5508
6,0,146500,16,-0.13682419,-1.3201174,0.836445,-0.5567
6,0,147000,16,-0.081226066,-1.9778981,1.3809067,-0.5624
6,0,147500,16,-0.07535242,-0.99313515,1.0383835,-0.5681
6,0,148000,16,-0.07858667,-0.44736895,0.7310696,-0.5735
6,0,148500,16,-0.017906703,0.2131566,0.65654963,-0.5783
6,0,149000,16,-0.14855474,-0.41257033,0.5939507,-0.5828
6,0,149500,16,-0.19956675,-0.11460109,0.40711918,-0.5871
6,0,150000,16,-0.25074363,-0.33707455,0.1934709,-0.5909
6,0,150500,16,-0.24357982,-0.07386167,0.24241632,-0.5945
6,0,151000,16,-0.062397547,-0.6748291,0.36268562,-0.5979
6,0,151500,16,-0.062397547,-1.3068681,0.3910119,-0.6007
6,0,152000,16,0.026568515,-0.49178374,0.30141965,-0.6029
6,0,152500,16,0.04146032,0.1287309,0.13512908,-0.6041
6,0,153000,16,0.017913638,0.15857105,0.12046448,-0.6045
6,0,153500,16,0.0005577922,0.34823397,0.19424038,-0.6042
6,0,154000,16,0.051259406,0.7488225,0.13408852,-0.603
6,0,154500,16,0.14498596,-0.17305942,-0.12192504,-0.601
6,0,155000,16,0.09286094,0.26719695,-0.6507676,-0.5981
6,0,155500,16,0.052681863,0.33847684,-2.2441037,-0.5943
6,0,156000,16,0.05174038,0.24922894,-3.7414021,-0.5892
6,0,156500,16,0.07954764,0.14396822,-3.8925982,-0.5835
6,0,157000,16,0.096324414,0.26825914,-3.20953,-0.5771
6,0,157500,16,0.08157352,-0.29493457,2.1240687,-0.5703
6,0,158000,16,0.25333133,-0.54581,1.9808946,-0.5632
6,0,158500,16,0.22408147,-0.9060962,1.7028203,-0.5559
6,0,159000,16,0.19053468,-0.20694156,0.78710854,-0.5486
6,0,159500,16,0.083733775,-0.15883258,0.1789411,-0.5418
6,0,160000,16,-0.09047982,0.08864478,-1.0564935,-0.5357
6,0,160500,16,-0.21148397,-0.41202042,-2.7934675,-0.5303
6,0,161000,16,-0.326491,0.11632765,1.4696113,-0.5257
6,0,161500,16,-0.2535509,0.3663947,1.6183349,-0.522
6,0,162000,16,-0.13916692,0.20687273,1.4308734,-0.5196
6,0,162500,17,-0.08070533,0.39351356,1.106847,-0.5183
6,0,163000,17,-0.04026153,-0.27062628,0.6387601,-0.5179
6,0,163500,17,-0.11916576,0.17400108,-0.043355677,-0.5192
6,0,164000,17,-0.13464458,0.2810525,-1.1619738,-0.5214
6,0,164500,17,-0.13464458,-0.073283575,-3.1710963,-0.5247
6,0,165000,17,-0.12626393,-0.25621143,-3.6880627,-0.5287
6,0,165500,17,-0.062397547,-0.49976432,-3.1089184,-0.5332
6,0,166000,17,-0.042563673,0.2796472,-2.5921917,-0.538
6,0,166500,17,0.023455555,0.34148952,-2.1634703,-0.5429
6,0,167000,17,0.118744746,0.54390347,-0.35923395,-0.5476
6,0,167500,17,0.2976054,0.6265338,3.3520577,-0.5521
6,0,168000,17,0.4441896,0.24965194,2.9969804,-0.5565
6,0,168500,17,0.43012115,-0.3711917,2.1290755,-0.5604
6,0,169000,17,0.42734542,-0.3496987,0.55054283,-0.5639
6,0,169500,17,0.2350592,-0.38856283,-1.7385269,-0.5665
6,0,170000,17,-0.06733554,0.0617844,-2.207973,-0.5687
6,0,170500,17,-0.35258016,0.5606777,0.38494238,-0.5705
6,0,171000,17,-0.6600514,1.0401084,2.618744,-0.5719
6,0,171500,17,-0.6218063,0.009981239,2.353188,-0.5728
6,0,172000,17,-0.6111522,0.28543288,1.9073392,-0.5731
6,0,172500,18,-0.621854,0.05385554,1.5703945,-0.5731
6,0,173000,18,-0.6882375,0.086905785,1.4392196,-0.5731
6,0,173500,18,-0.6254356,-0.09236549,1.2190752,-0.573
6,0,174000,18,-0.63630074,0.4990469,0.91503125,-0.573
6,0,174500,18,-0.6646162,0.59153306,0.8945723,-0.5733
6,0,175000,18,-0.43298805,-0.32484522,0.48044512,-0.574
6,0,175500,18,-0.41957203,0.17803836,0.46450007,-0.5751
6,0,176000,18,-0.33939937,0.060496606,0.33904046,-0.5765
6,0,176500,18,-0.23276822,-0.1119456,-0.0030844072,-0.5788
6,0,177000,18,-0.17689015,-0.40860823,-0.15643348,-0.5815
6,0,177500,18,-0.08142854,-0.24762458,0.0029749004,-0.5847
6,0,178000,18,0.013800626,-0.6295119,-0.28261328,-0.5887
6,0,178500,18,0.09779266,-0.37927097,-0.5065056,-0.5929
6,0,179000,18,0.18337882,0.04893936,-0.6192426,-0.5975
6,0,179500,18,0.25600612,0.123119116,-0.92933005,-0.6025
6,0,180000,18,0.31060338,0.3176982,0.354092,-0.6081
6,0,180500,18,0.41147494,0.4314565,0.49595422,-0.6139
6,0,181000,18,0.32864594,-0.31782344,0.6051554,-0.6201
6,0,181500,18,0.23590113,0.1720412,0.15541762,-0.6268
6,0,182000,18,0.0201694,0.31136736,0.15063438,-0.6336
6,0,182500,18,-0.22978789,0.16729422,-0.008158293,-0.6405
6,0,183000,18,-0.63862675,-0.30872428,-2.05023,-0.6478
6,0,183500,18,-0.866541,-0.05266477,-2.8391185,-0.6553
6,0,184000,18,-0.95121944,-0.11467629,-0.5206345,-0.6627
6,0,184500,18,-0.9847795,-0.25440663,1.1872522,-0.6703
6,0,185000,18,-0.8344387,-0.008278177,0.84090084,-0.678
6,0,185500,18,-0.72741914,-0.16143167,0.20231254,-0.6853
6,0,186000,18,-0.6184871,0.3035043,0.896839,-0.6931
6,0,186500,18,-0.41435468,-0.840085,0.8679744,-0.7006
6,0,187000,18,-0.41005567,-0.062821425,0.6243044,-0.708
6,0,187500,18,-0.38640985,-0.14711083,0.0953889,-0.7151
6,0,188000,18,-0.34841844,0.18862742,-0.3294898,-0.7218
6,0,188500,18,-0.31860775,-0.21116684,-0.9229708,-0.7281
6,0,189000,18,-0.24878547,0.21875428,-0.855719,-0.734
6,0,189500,19,-0.064913064,0.3419548,0.61178344,-0.7395
6,0,190000,19,0.07287384,0.02733356,0.66600376,-0.7443
6,0,190500,19,0.14697923,-0.09742267,0.6659597,-0.7483
6,0,191000,19,0.22931097,0.119354434,0.5071108,-0.7518
6,0,191500,19,0.18550552,-0.38786724,-0.014861612,-0.7543
6,0,192000,19,0.008401589,0.080255315,-1.6660776,-0.7558
6,0,192500,19,-0.08320963,0.2803334,-2.05032,-0.7567
6,0,193000,19,-0.18188079,0.16991681,0.641864,-0.7564
6,0,193500,19,-0.28670746,0.2775228,0.8494734,-0.7551
6,0,194000,19,-0.29892564,-0.5176994,0.6577711,-0.7531
6,0,194500,19,-0.42805985,0.003673868,0.602509,-0.7495
6,0,195000,19,-0.48900288,0.042946886,0.41410467,-0.7449
6,0,195500,19,-0.51183563,-0.42137808,0.46607262,-0.7393
6,0,196000,19,-0.6780062,0.015264015,0.2848811,-0.7318
6,0,196500,19,-0.65853906,0.0830001,-0.029934157,-0.7231
6,0,197000,20,-0.62428916,-0.23063885,-1.665131,-0.7128
6,0,197500,20,-0.57623893,-0.5635947,-1.4033613,-0.7014
6,0,198000,20,-0.38614628,-0.33920366,0.8723167,-0.689
6,0,198500,20,-0.0499433,-0.19428451,1.052219,-0.6748
6,0,199000,20,0.101398245,0.094848745,0.911009,-0.6597
6,0,199500,20,0.09726596,-0.64887583,0.7119515,-0.6436
6,0,200000,20,0.090298206,-0.66199815,0.41752318,-0.6259
6,0,200500,20,0.019846462,-1.2254362,-4.6314707,-0.6075
6,0,201000,21,-0.09298981,-0.11397129,-4.158691,-0.5878
6,0,201500,21,-0.06257528,0.05300014,-2.8209615,-0.5655
6,0,202000,21,-0.115243964,-0.7215234,0.59765047,-0.5426
6,0,202500,21,-0.2752015,0.12267262,-1.2290864,-0.5185
6,0,203000,21,-0.38924706,-0.7735522,-2.5533748,-0.4919
6,0,203500,21,-0.54039615,-0.026170995,-2.4696748,-0.4653
6,0,204000,21,-0.641893,-0.6806665,-2.0612204,-0.438
6,0,204500,21,-0.67732155,-1.5428258,-1.7207716,-0.4095
6,0,205000,21,-0.6375074,-0.90425384,3.0020473,-0.3809
6,0,205500,21,-0.50752276,-0.27516174,3.3490922,-0.3523
6,0,206000,21,-0.3241936,-0.6102091,2.8178434,-0.3239
6,0,206500,22,-0.14574683,-0.20941375,2.3640943,-0.2966
6,0,207000,22,0.0046701888,-0.70132756,2.1052766,-0.2704
6,0,207500,22,0.1239386,0.102881014,1.9645267,-0.2459
6,0,208000,22,0.36809966,0.058588415,1.4284602,-0.2234
6,0,208500,22,0.39891827,0.3031518,1.2031499,-0.203
6,0,209000,22,0.2650432,0.34167752,0.5768215,-0.1865
6,0,209500,22,0.0727069,0.2750788,0.3384592,-0.1725
6,0,210000,22,-0.19771212,-0.10734432,0.10088648,-0.1608
6,0,210500,22,-0.48360986,0.44515222,0.77017283,-0.1537
6,0,211000,22,-0.38003954,0.24557236,0.5759922,-0.1491
6,0,211500,22,-0.24055533,0.15701537,0.47160405,-0.147
6,0,212000,22,-0.24387571,-0.06361102,0.38878778,-0.1491
6,0,212500,22,-0.14174193,-1.4348391,0.23903315,-0.1534
6,0,213000,22,-0.14174193,-0.30128422,0.042538837,-0.1596
6,0,213500,22,-0.10285449,-0.116565675,0.033565868,-0.1682
6,0,214000,22,-0.052938,-0.2420128,-0.4429306,-0.1784
6,0,214500,22,-0.0017825312,-0.069199294,-3.2161996,-0.1895
6,0,215000,22,0.09726596,-0.25260186,-4.42737,-0.2013
6,0,215500,22,0.1278931,0.0001394843,-3.6881647,-0.2133
6,0,216000,22,0.1416869,-0.06326322,-3.0732608,-0.226
6,0,216500,22,0.071153656,0.19904727,-2.534515,-0.2384
6,0,217000,22,0.011210284,0.4076981,2.3726943,-0.2507
6,0,217500,22,-0.00986663,0.6016192,2.7534811,-0.2632
6,0,218000,22,-0.047664355,0.10969128,2.2354188,-0.2757
6,0,218500,22,-0.16996162,0.049414057,0.8769246,-0.288
6,0,219000,22,-0.45597583,-0.5084076,1.6198537,-0.3001
6,0,219500,22,-0.8348648,-0.79424614,1.4415333,-0.3115
6,0,220000,22,-0.76034576,-0.23297474,1.4052194,-0.3231
6,0,220500,22,-0.88339615,0.18232945,1.1974449,-0.3344
6,0,221000,22,-1.088442,-0.18222438,0.9922271,-0.3455
6,0,221500,22,-1.0017802,0.28680527,0.7167397,-0.3558
6,0,222000,22,-1.0244783,0.23672229,0.65560216,-0.3659
6,0,222500,22,-1.1738214,-0.085151024,0.52381593,-0.3759
6,0,223000,22,-1.1178102,0.44308424,-0.040288817,-0.3857
6,0,223500,22,-1.0753299,0.1051793,-0.1725568,-0.3947
6,0,224000,23,-0.9801319,-0.41019213,0.39873594,-0.4035
6,0,224500,23,-0.74927443,0.22223227,0.3783946,-0.4118
6,0,225000,23,-0.5805426,0.4108518,0.4151292,-0.4197
6,0,225500,23,-0.46312955,0.6413387,0.3240534,-0.4267
6,0,226000,23,-0.39555243,-0.38857222,0.06285276,-0.4331
6,0,226500,23,-0.32656088,0.1730329,-0.54485184,-0.439
6,0,227000,23,-0.2663253,0.019226097,-1.3115184,-0.4444
6,0,227500,24,-0.22028184,0.05981511,-2.1392148,-0.4488
6,0,228000,24,-0.19771212,0.39173228,0.51581,-0.4529
6,0,228500,24,0.029535843,0.169522,0.6761168,-0.4565
6,0,229000,24,-0.10315466,0.42787042,0.5219303,-0.4601
6,0,229500,24,-0.11297065,0.28705907,-0.057226572,-0.4635
6,0,230000,24,-0.093971014,0.13579026,-1.5829033,-0.4666
6,0,230500,24,-0.16990528,0.36520562,-2.0395906,-0.4698
6,0,231000,24,-0.16299623,-0.18152408,-2.1429782,-0.4731
6,0,231500,24,-0.18810347,0.3026583,-2.5294018,-0.4766
6,0,232000,24,-0.21006781,0.20978202,-3.3125627,-0.4803
6,0,232500,24,-0.23770183,0.09989183,-2.797711,-0.4841
6,0,233000,24,-0.3055066,-0.12296235,-1.9083817,-0.4881
6,0,233500,24,-0.21570767,0.26045248,2.7789364,-0.4924
6,0,234000,24,-0.19593282,0.23851769,2.5217822,-0.4969
6,0,234500,24,-0.12937644,0.09761704,1.688936,-0.5018
6,0,235000,24,-0.059147567,0.20531704,-0.50627595,-0.5067
6,0,235500,24,-0.16289812,-0.29042727,-3.0756266,-0.5115
6,0,236000,24,-0.2634944,-0.11303599,-2.6146681,-0.5162
6,0,236500,24,-0.32919586,0.006719454,-2.1791506,-0.5206
6,0,237000,24,-0.3913372,-0.3518795,-1.8184372,-0.5249
6,0,237500,24,-0.47582182,-0.38148466,0.20320605,-0.5289
6,0,238000,24,-0.32844272,0.19837987,2.885212,-0.5327
6,0,238500,24,-0.3080915,0.20948122,1.099756,-0.5363
6,0,239000,24,-0.26604527,0.023197578,1.6419477,-0.5397
6,0,239500,24,-0.18959779,0.4039193,2.7554567,-0.5432
6,0,240000,24,-0.17689015,-0.19532321,2.4544275,-0.5467
6,0,240500,24,-0.051849753,0.17952825,2.0530777,-0.5503
6,0,241000,24,-0.10862346,0.22856313,1.0711327,-0.5539
6,0,241500,24,-0.19432299,0.090294465,-0.21851037,-0.5576
6,0,242000,24,-0.27266362,0.48545456,-2.889075,-0.5614
6,0,242500,24,-0.27906013,-0.18193768,-3.3537543,-0.5655
6,0,243000,24,-0.263821,0.08132691,-2.79739,-0.5699
6,0,243500,24,-0.22517392,0.06702488,-2.330879,-0.5747
6,0,244000,24,-0.19079347,-0.114930086,-1.9438953,-0.5797
6,0,244500,24,-0.19079347,0.19947027,-1.6225282,-0.5849
6,0,245000,24,-0.13531837,0.0015400779,1.6856456,-0.5902
6,0,245500,24,0.03876234,0.28504747,3.0537276,-0.5955
6,0,246000,24,0.10617841,0.30812436,2.691699,-0.6006
6,0,246500,24,0.24821208,0.16013615,2.677307,-0.6056
6,0,247000,25,0.32898867,-0.21356383,2.298402,-0.6103
6,0,247500,25,0.24832402,-0.001759307,2.0024614,-0.6147
6,0,248000,25,0.2350592,-0.15760589,1.5105584,-0.6187
6,0,248500,25,-0.09013264,-0.18931665,0.8982896,-0.6222
6,0,249000,25,-0.22664551,0.1259532,0.21561618,-0.6251
6,0,249500,25,-0.36228806,0.22001857,0.5382681,-0.6275
6,0,250000,25,-0.5296056,0.46198756,0.9599355,-0.6293
6,0,250500,25,-0.42864615,-0.006792984,0.91917986,-0.6307
6,0,251000,25,-0.44252816,0.45589638,0.69239193,-0.6315
6,0,251500,25,-0.44584092,0.15632917,0.6780066,-0.632
6,0,252000,25,-0.43298805,-0.32428122,0.33446264,-0.6322
6,0,252500,25,-0.5180755,0.102349915,-0.32279348,-0.6323
6,0,253000,25,-0.5027911,0.24289806,0.09662177,-0.6323
6,0,253500,25,-0.41674185,0.07770323,0.5586737,-0.6323
6,0,254000,25,-0.24970052,0.34981787,0.52426153,-0.6324
6,0,254500,25,-0.19079347,0.1274948,0.21468796,-0.6326
6,0,255000,25,-0.09842152,0.1470655,-0.4357003,-0.6329
6,0,255500,25,-0.06410366,-0.03126107,-0.4000862,-0.6334
6,0,256000,25,-0.038259447,-0.24806637,0.016055884,-0.6341
6,0,256500,25,0.017190736,0.024410173,0.42634964,-0.6349
6,0,257000,25,0.12897108,-0.36057916,0.49672776,-0.636
6,0,257500,25,-0.09061309,-0.1548329,0.37391862,-0.6373
6,0,258000,25,-0.17244707,0.04471878,0.1550835,-0.6388
6,0,258500,25,-0.29078263,-0.03598925,-0.15281336,-0.6405
6,0,259000,25,-0.44531763,-0.3976479,-1.3371023,-0.6421
6,0,259500,25,-0.6342575,0.0026398727,-0.87536705,-0.6437
6,0,260000,25,-0.50645345,0.35618165,0.40410194,-0.6451
6,0,260500,25,-0.44783974,-0.059066143,0.31154436,-0.6465
6,0,261000,25,-0.5296056,0.033246133,0.50884026,-0.6476
6,0,261500,25,-0.2954586,0.20004836,-0.105312355,-0.6484
6,0,262000,25,-0.15597598,0.2760517,-0.68019986,-0.6487
6,0,262500,25,-0.13252835,0.051345747,-2.0280964,-0.6489
6,0,263000,25,-0.18874593,-0.06216813,-4.1153665,-0.6487
6,0,263500,25,-0.31860775,-0.034264356,1.398962,-0.6481
6,0,264000,25,-0.120906614,0.061869,1.2874999,-0.6471
6,0,264500,25,-0.15364666,0.1256853,1.0780892,-0.6457
6,0,265000,25,-0.17689015,-0.021165518,0.77928734,-0.6441
6,0,265500,25,-0.18622604,-0.02691829,0.12851681,-0.6421
6,0,266000,26,-0.24553643,-0.3276605,-1.6385279,-0.6397
6,0,266500,26,-0.24553643,0.048107464,-3.702668,-0.637
6,0,267000,26,-0.18242937,0.21796468,-2.1384733,-0.6339
6,0,267500,26,0.00421044,0.2356601,1.905992,-0.6307
6,0,268000,26,0.16809024,0.089288674,1.7087107,-0.6273
6,0,268500,26,0.12784155,0.32839066,1.414293,-0.6237
6,0,269000,26,0.18550552,-0.6816817,1.0707439,-0.6199
6,0,269500,26,-0.033144984,0.15853345,0.84192884,-0.616
6,0,270000,26,-0.22120737,-0.1541467,-0.062015075,-0.6121
6,0,270500,26,-0.39153457,-0.47182766,-2.183773,-0.6082
6,0,271000,26,-0.69909227,-0.7516549,-1.3219081,-0.6043
6,0,271500,26,-0.7181719,-0.09658607,0.3296365,-0.6005
6,0,272000,26,-0.70855564,-0.07942645,-0.9329449,-0.5971
6,0,272500,26,-0.666344,-0.30615342,-2.3444989,-0.5933
6,0,273000,26,-0.67593837,0.1269684,-3.3619673,-0.5896
6,0,273500,26,-0.6984328,0.023150578,-2.7231045,-0.5861
6,0,274000,26,-0.7196061,0.2961488,2.3634593,-0.5829
6,0,274500,26,-0.5877293,-0.38638672,2.021734,-0.5799
6,0,275000,26,-0.56443006,0.22068126,1.5028337,-0.5766
6,0,275500,26,-0.5240976,-0.37937436,-0.039952077,-0.5734
6,0,276000,26,-0.46367455,-0.3280177,-2.3572729,-0.5705
6,0,276500,26,-0.48717067,0.06975556,2.0997593,-0.5678
6,0,277000,26,-0.3450527,0.30238098,2.0625634,-0.5651
6,0,277500,26,-0.27099943,0.073976144,1.5194631,-0.5621
6,0,278000,26,-0.25460953,0.26055118,0.8176522,-0.5594
6,0,278500,26,-0.22516921,-0.0897946,0.17435716,-0.5567
6,0,279000,26,-0.23098528,0.24526216,-0.34290197,-0.5541
6,0,279500,26,-0.08972929,0.12008763,1.1334515,-0.5511
6,0,280000,26,-0.04352387,-0.06462622,1.0084916,-0.5483
6,0,280500,26,-0.06862407,0.06366439,1.0290416,-0.5455
6,0,281000,26,0.019846462,0.09970853,0.67862725,-0.5425
6,0,281500,26,-0.0027439594,-0.62686116,0.3361735,-0.5393
6,0,282000,26,-0.020387268,-0.18751656,0.05730528,-0.5362
6,0,282500,26,-0.025382824,0.11091328,-1.3420184,-0.5331
6,0,283000,26,-0.02011095,0.111383274,-1.1615905,-0.5301
6,0,283500,26,0.038687114,0.3223371,0.83319926,-0.527
6,0,284000,27,0.23312369,0.39919585,0.78679395,-0.5239
6,0,284500,27,0.073766865,-0.44725615,0.7009385,-0.5211
6,0,285000,27,0.08665393,-0.0032867999,0.5899816,-0.5184
6,0,285500,27,-0.0293298,-0.20378317,0.04685549,-0.5157
6,0,286000,27,-0.13835055,-0.37394118,-0.28835887,-0.5133
6,0,286500,27,-0.19344515,0.23053242,-0.50797164,-0.5111
6,0,287000,27,-0.33810905,-0.49487165,-2.172319,-0.5094
6,0,287500,27,-0.4068251,0.30410117,-2.9617388,-0.5078
6,0,288000,27,-0.40654603,0.3435763,1.078845,-0.5067
6,0,288500,27,-0.34973145,0.3903082,1.2178869,-0.5062
6,0,289000,27,-0.33162856,-0.2436484,1.1782594,-0.5059
6,0,289500,27,-0.17630129,0.073210046,1.0366592,-0.5059
6,0,290000,27,-0.20459689,0.22139567,0.5360752,-0.5066
6,0,290500,27,-0.25555977,-0.18268028,-0.005576412,-0.5075
6,0,291000,27,-0.24553643,-0.36508644,-0.91865295,-0.5089
6,0,291500,27,-0.30940604,-0.1554016,-3.509524,-0.5109
6,0,292000,27,-0.36516383,0.08853198,-3.8378558,-0.5131
6,0,292500,27,-0.38744476,-0.11927757,-3.2137449,-0.5159
6,0,293000,27,-0.37021604,0.048530463,-2.679224,-0.5194
6,0,293500,27,-0.4258903,-0.31452876,-2.235666,-0.5235
6,0,294000,27,-0.31371582,0.17981026,0.92627066,-0.5275
6,0,294500,27,-0.20967825,-0.2416979,2.9219449,-0.5321
6,0,295000,27,-0.13070573,-0.40928972,2.365129,-0.5375
6,0,295500,27,-0.09157739,-0.10968491,1.7242944,-0.5424
6,0,296000,27,-0.112782426,-0.26109472,1.0025208,-0.5477
6,0,296500,27,-0.2061047,0.016815007,-1.9167562,-0.5539
6,0,297000,27,-0.27737314,-0.13780019,-3.0443847,-0.5595
6,0,297500,27,-0.29277816,0.10099632,1.4316099,-0.5656
6,0,298000,27,-0.12038132,-0.19541252,2.3666246,-0.5309
6,0,298500,27,-0.17123926,0.1480196,2.1062174,-0.4957
6,0,299000,27,-0.08927506,0.006099057,1.5503476,-0.4601
6,0,299500,27,-0.096293,-0.2840024,1.2429508,-0.4245
6,0,300000,27,-0.16846837,-0.20866646,1.198234,-0.3882
6,0,300500,27,-0.19771212,-0.3521004,1.121057,-0.3513
6,0,301000,27,-0.2220391,0.060482506,1.0223707,-0.3138
7,0,500,1,0.14831804,1.0115372,0.8501105,0.0557
7,0,1000,1,0.2125793,-0.42232278,0.5893548,0.0627
7,0,1500,1,0.3401262,-1.0426588,0.9418717,0.0696
7,0,2000,1,0.45622104,-0.16193926,0.7169332,0.0768
7,0,2500,1,0.5774251,-0.20834686,0.65146494,0.0841
7,0,3000,1,0.7094962,-0.38714343,0.6308668,0.0919
7,0,3500,1,0.8485366,0.3844802,0.21735358,0.1001
7,0,4000,1,0.9984624,-0.020822419,0.29780975,0.1086
7,0,4500,2,1.1406319,-0.19487672,0.10983115,0.1092
7,0,5000,2,1.2660209,-0.25369695,0.18486793,0.1113
7,0,5500,2,1.3877362,0.040700298,0.29289228,0.114
7,0,6000,2,1.42166,0.18470763,0.2565201,0.1169
7,0,6500,2,1.4105449,0.19485489,0.24273323,0.1199
7,0,7000,2,1.2711204,0.1908082,0.2106736,0.1232
7,0,7500,3,1.0502276,-0.019529926,0.18258835,0.1266
7,0,8000,3,0.7847726,-0.16587315,0.30801675,0.1299
7,0,8500,3,0.44873554,-0.021776514,0.1887603,0.1331
7,0,9000,3,0.08974175,-0.64677024,-0.3207996,0.1363
7,0,9500,3,-0.19016069,-1.4265249,-0.28387034,0.1393
7,0,10000,3,-0.2857025,-1.7239817,0.32398573,0.1421
7,0,10500,3,-0.20833923,-0.6762438,0.04972947,0.1445
7,0,11000,3,0.13466573,-1.2060912,-0.06558179,0.1464
7,0,11500,3,0.29249406,-1.7858194,0.045615908,0.1477
7,0,12000,3,0.24765466,-1.6710413,0.51705104,0.1483
7,0,12500,3,0.101249516,-0.9380279,0.5326894,0.1485
7,0,13000,3,-0.07539016,-0.07586387,-0.09455325,0.1483
7,0,13500,3,-0.047664355,0.12386642,0.13685948,0.1479
7,0,14000,3,0.1297534,0.08861658,0.025671989,0.1469
7,0,14500,3,0.1885176,-0.5930683,-1.147993,0.1459
7,0,15000,3,0.26692277,-0.8471538,-0.71355915,0.1445
7,0,15500,3,0.4060281,-0.23820111,-0.05394349,0.1427
7,0,16000,3,0.5581906,-1.2005029,0.1458663,0.1408
7,0,16500,4,0.6856142,-1.7626485,-0.06692468,0.1389
7,0,17000,4,0.8173719,-1.8087835,-0.13328788,0.1368
7,0,17500,4,0.9130549,-1.340816,0.57659715,0.1345
7,0,18000,4,0.92862356,-1.5673691,0.56254035,0.1323
7,0,18500,4,0.85323256,-1.0001851,0.017774317,0.1301
7,0,19000,4,0.7105209,-0.6614765,-0.1408704,0.1279
7,0,19500,4,0.658639,-0.92659754,-0.7543507,0.1261
7,0,20000,4,0.58689094,-0.25618324,-0.26265445,0.124
7,0,20500,4,0.6643749,-0.07677566,-0.20949568,0.1219
7,0,21000,4,0.763464,0.060924303,-0.26091152,0.1201
7,0,21500,4,0.8906039,-0.038597737,0.053693917,0.1184
7,0,22000,4,1.0993361,0.13412647,-0.08055717,0.1163
7,0,22500,4,1.0216453,-1.5831892,0.29685962,0.1145
7,0,23000,4,1.0588485,-1.8918602,0.6454132,0.1127
7,0,23500,4,0.9227601,-1.0468136,0.8757288,0.1108
7,0,24000,4,0.65231544,-0.29899064,0.42632046,0.1089
7,0,24500,4,0.22533043,0.5616224,-0.18942131,0.1068
7,0,25000,5,-0.024983292,0.28521666,-0.06277085,0.1047
7,0,25500,5,-0.1863917,-1.6727003,0.15915564,0.1023
7,0,26000,5,-0.2881757,-1.4788733,0.3348674,0.1
7,0,26500,5,-0.37021604,-0.21785492,-0.014242112,0.0977
7,0,27000,5,-0.36011663,-0.30434862,-0.38460398,0.0953
7,0,27500,5,-0.30401632,-0.36464933,-0.48185664,0.0932
7,0,28000,5,-0.21934679,-0.9568278,-0.21656229,0.0911
7,0,28500,5,-0.12012152,-0.33555648,-0.17346373,0.0889
7,0,29000,5,0.0046701888,-1.2890552,-0.15715948,0.0869
7,0,29500,5,0.19747865,-1.9603578,-0.099543385,0.0851
7,0,30000,6,0.4469712,-1.5248061,-0.11993698,0.0835
7,0,30500,6,0.6461534,-1.0747268,0.040237088,0.0823
7,0,31000,6,0.79079896,-1.0600581,0.43202376,0.0814
7,0,31500,6,0.88002217,-1.6042075,0.2645056,0.0809
7,0,32000,6,0.8848019,-2.303663,0.049204804,0.0811
7,0,32500,6,0.85642165,-1.7065308,-0.020449072,0.0816
7,0,33000,6,0.82542884,-1.325292,-0.13167246,0.0824
7,0,33500,6,0.8149885,-0.77612776,-0.1545954,0.0836
7,0,34000,6,0.8414471,-0.37953416,-0.21556227,0.0855
7,0,34500,6,0.8381342,-2.3451262,-0.33219776,0.0877
7,0,35000,6,0.90335166,-2.5606673,-0.8134813,0.0902
7,0,35500,6,0.9615056,-0.7639736,-0.21809892,0.0933
7,0,36000,6,0.9460587,0.17915696,0.089484535,0.0971
7,0,36500,6,0.8262991,-0.076300964,0.101901956,0.1008
7,0,37000,7,0.6243398,-0.25263476,-0.13518286,0.1051
7,0,37500,7,0.45479354,-1.6253198,-0.3072354,0.1101
7,0,38000,7,0.3692128,-0.6524055,-0.22891113,0.1145
7,0,38500,7,0.29906985,0.72295386,0.21431619,0.1195
7,0,39000,7,0.37383416,0.91269195,0.92526656,0.1247
7,0,39500,7,0.79329485,-0.05114668,0.30002132,0.1297
7,0,40000,7,0.7635114,-1.433636,-2.0942135,0.1357
7,0,40500,7,0.8360389,-1.3812828,1.1306165,0.1415
7,0,41000,7,0.9348521,-0.4159355,0.40368378,0.1482
7,0,41500,7,1.0449644,-0.5852522,-3.5415294,0.1554
7,0,42000,7,1.0548805,0.5994619,-2.2824352,0.1623
7,0,42500,7,1.0384185,0.6502593,0.9778505,0.1701
7,0,43000,8,1.0944383,0.60362613,1.6693679,0.1783
7,0,43500,8,1.0021772,0.65630347,1.5034229,0.1859
7,0,44000,8,0.89498,0.34991187,1.1617699,0.1946
7,0,44500,8,0.7630736,-0.17824349,0.5548519,0.2035
7,0,45000,8,0.5547498,-1.0401678,0.50769174,0.2117
7,0,45500,8,0.48944527,-1.1181828,0.5832768,0.2209
7,0,46000,8,0.47359607,-0.6106932,0.6194549,0.2301
7,0,46500,8,0.4967274,-0.4793241,0.3631324,0.2386
7,0,47000,8,0.4975389,-0.32140014,-0.9625676,0.2475
7,0,47500,8,0.53875786,-0.44796115,-0.547027,0.2557
7,0,48000,8,0.61077315,-0.73574555,-0.2083769,0.264
7,0,48500,8,0.65854734,-2.2933748,-0.89094585,0.2713
7,0,49000,8,0.70038664,-1.0985792,-0.58841646,0.2777
7,0,49500,8,0.7423403,1.8768643,0.30488044,0.2843
7,0,50000,8,0.7459964,4.449078,-0.27091804,0.2897
7,0,50500,8,0.76531124,3.0816991,0.20310159,0.2946
7,0,51000,9,0.9036138,3.7439167,0.2700455,0.2993
7,0,51500,9,0.7921817,3.2427392,0.33982718,0.3029
7,0,52000,9,0.68396604,1.6400559,0.23339696,0.3055
7,0,52500,9,0.16921431,-0.084356725,0.20942293,0.3079
7,0,53000,9,-0.14003676,-0.3909833,0.2550383,0.3093
7,0,53500,9,-0.25154042,-0.5464351,0.25632164,0.3099
7,0,54000,9,-0.2769189,-0.95258844,0.24907383,0.3103
7,0,54500,9,-0.33162856,-0.4380959,0.033671208,0.3102
7,0,55000,9,-0.1908166,-0.27717805,0.13002485,0.3098
7,0,55500,9,0.01023755,-0.8487377,0.22004518,0.3091
7,0,56000,9,0.19046573,-1.2865548,0.22437993,0.3083
7,0,56500,9,0.3344244,-1.9181002,-0.13188168,0.3073
7,0,57000,10,0.44282135,-1.3774618,0.0055634924,0.306
7,0,57500,10,0.53214806,0.23195651,-0.004519207,0.3047
7,0,58000,10,0.6388044,1.310202,-0.15823273,0.303
7,0,58500,10,0.7448214,0.87693924,-1.0581197,0.3013
7,0,59000,10,0.7951246,-1.1330723,-1.3304303,0.2997
7,0,59500,10,0.85441625,-0.1345572,-0.96279293,0.2982
7,0,60000,10,0.9196724,2.3550918,-0.21568659,0.2969
7,0,60500,10,0.9247499,1.975357,-0.07986851,0.2959
7,0,61000,10,0.9818579,1.2964264,-0.024305552,0.2951
7,0,61500,10,0.9709133,0.87170815,0.19950977,0.2943
7,0,62000,10,0.8204466,0.31571484,0.10972843,0.2935
7,0,62500,10,0.55554914,-0.8111849,0.22108634,0.2928
7,0,63000,10,0.15873127,-0.5668048,0.078456685,0.292
7,0,63500,10,-0.039662242,-0.37699148,0.03840748,0.2913
7,0,64000,10,-0.13577123,-0.4828961,-0.33421993,0.2907
7,0,64500,10,-0.1473502,-0.012259059,-0.6647252,0.29
7,0,65000,10,-0.08888982,0.2974883,0.088906184,0.2893
7,0,65500,10,0.04280089,0.6769317,0.22427663,0.2887
7,0,66000,10,0.32360598,0.16421573,0.14572361,0.2879
7,0,66500,10,0.50317055,-0.29967213,-0.32290086,0.2871
7,0,67000,11,0.5941893,-0.19182643,-0.5780548,0.2863
7,0,67500,11,0.64033794,0.8607055,-1.8450651,0.2853
7,0,68000,11,0.697778,1.0436568,-1.2174058,0.2842
7,0,68500,11,0.7939399,0.65732336,-1.3012758,0.2832
7,0,69000,11,0.9175821,-0.033173963,-1.419492,0.2821
7,0,69500,11,1.054989,1.0840908,-1.3182454,0.2809
7,0,70000,11,1.1511759,0.37431887,-0.7258324,0.2796
7,0,70500,11,1.235827,0.5241777,1.4189141,0.2783
7,0,71000,11,1.2772943,3.11709,0.88547593,0.2773
7,0,71500,11,1.2821779,2.31329,0.3484094,0.2763
7,0,72000,11,1.1841766,1.212856,-0.08420501,0.2755
7,0,72500,11,1.0261405,1.4715899,-0.3296672,0.2747
7,0,73000,11,0.86531514,1.0901773,-1.9532944,0.274
7,0,73500,12,0.56340283,-0.40107417,-1.5502242,0.2735
7,0,74000,12,0.32095173,-0.24989936,0.12589057,0.2731
7,0,74500,12,0.18489869,-0.40244657,1.86281,0.2729
7,0,75000,12,0.23775946,-1.1082047,1.3413745,0.2729
7,0,75500,12,0.4471626,-0.6601887,1.2574313,0.2729
7,0,76000,12,0.49534318,0.54491866,1.1963089,0.2732
7,0,76500,12,0.30276215,0.6979688,0.95705074,0.2738
7,0,77000,12,0.2116355,-0.19515872,0.6938031,0.2747
7,0,77500,12,0.15710717,-0.03626185,0.10959975,0.2761
7,0,78000,12,0.22785664,-0.39050862,-0.14479458,0.2778
7,0,78500,12,0.35230136,-0.8297639,-0.43353334,0.2799
7,0,79000,12,0.48430908,-0.8761903,-1.5424362,0.2822
7,0,79500,12,0.6102031,-1.0119444,0.10836833,0.2845
7,0,80000,12,0.7143051,-0.5668988,-0.5478551,0.2871
7,0,80500,13,0.79886246,-1.0104922,-1.4576874,0.2898
7,0,81000,13,0.894527,-2.082355,-1.7285587,0.2925
7,0,81500,13,0.9855402,-0.68894786,0.77525723,0.2953
7,0,82000,13,1.0472952,0.24881534,0.5343857,0.2979
7,0,82500,13,1.0624887,1.2418597,0.09646244,0.3005
7,0,83000,13,0.9945186,2.27609,0.29684767,0.3031
7,0,83500,13,0.7880342,1.4357996,-0.19605285,0.3055
7,0,84000,13,0.5745431,0.5132032,-1.1354395,0.3077
7,0,84500,14,0.6229036,-0.33888876,-0.89837515,0.3097
7,0,85000,14,0.60128963,-1.0639545,0.07945203,0.3113
7,0,85500,14,0.15303446,-0.98828477,1.556694,0.3127
7,0,86000,14,-0.02405065,0.30910197,0.23183085,0.3135
7,0,86500,14,-0.15869616,0.9580186,0.05179369,0.3137
7,0,87000,14,-0.26105502,-0.10831722,2.1210902,0.3137
7,0,87500,14,-0.32720318,0.07710633,1.8091499,0.3137
7,0,88000,15,-0.055042986,-0.14022067,1.0193775,0.314
7,0,88500,15,-0.12687354,-0.2860892,0.93345314,0.3147
7,0,89000,15,-0.19910128,-0.42792514,0.75094175,0.3157
7,0,89500,15,-0.2804661,-0.39670318,0.48962206,0.3176
7,0,90000,15,-0.44531763,-0.14131576,-0.15414982,0.3204
7,0,90500,15,-0.42513534,-0.09472488,-1.6966677,0.3242
7,0,91000,15,-0.41143656,-0.90407526,-1.4547428,0.3291
7,0,91500,15,-0.31482577,-1.3331363,-0.4234985,0.3351
7,0,92000,15,-0.046009038,1.4932239,-0.1689288,0.3424
7,0,92500,15,0.17734592,1.9045942,-0.11832856,0.3512
7,0,93000,15,0.32410693,1.1087421,-0.084854275,0.361
7,0,93500,15,0.3888989,0.17795846,-0.060303353,0.3719
7,0,94000,16,0.37294674,-0.3730811,-0.06483448,0.3851
7,0,94500,16,0.311899,-0.6652365,-0.028998634,0.3995
7,0,95000,16,0.19696414,-1.8565775,-0.011819556,0.4149
7,0,95500,16,0.05018621,-0.75764275,0.008565279,0.4309
7,0,96000,16,-0.098813325,2.2018397,0.25765577,0.4473
7,0,96500,16,-0.14501631,2.0694366,-0.6657357,0.4642
7,0,97000,16,-0.1392363,0.83720565,-1.1867398,0.4809
7,0,97500,16,-0.16879123,-0.44671094,-0.3887902,0.4973
7,0,98000,16,-0.2173916,-0.8316439,-0.053368635,0.5131
7,0,98500,17,-0.21148397,-0.70282215,0.102499574,0.5281
7,0,99000,17,-0.14278956,-0.44890586,0.16387877,0.542
7,0,99500,17,-0.028354743,-0.56339264,0.029388404,0.555
7,0,100000,17,0.08004533,-1.6138471,1.1053665,0.5667
7,0,100500,17,0.19639787,-0.78378403,1.5793875,0.5773
7,0,101000,17,0.31700298,1.3495737,1.2319268,0.5866
7,0,101500,17,0.373162,1.3248237,1.3456168,0.594
7,0,102000,17,0.31998748,0.07072846,1.3448403,0.6002
7,0,102500,17,0.16651234,-0.9775453,0.9734454,0.6054
7,0,103000,17,0.09333184,-1.2365705,0.56412166,0.6095
7,0,103500,17,0.11664076,-0.3305228,-0.08549274,0.6124
7,0,104000,18,0.17037377,-0.24670808,-0.014223144,0.6138
7,0,104500,18,0.24803603,-0.31590587,0.11570282,0.6141
7,0,105000,18,0.3720959,-0.59167236,0.15689911,0.6133
7,0,105500,18,0.47892934,-1.124335,0.194475,0.6116
7,0,106000,18,0.58072156,-1.410404,0.15587984,0.6088
7,0,106500,18,0.64540094,-0.35524467,0.044089776,0.6052
7,0,107000,18,0.71215147,0.0070578526,-1.2962675,0.6007
7,0,107500,18,0.71215147,-0.5207356,-2.3109062,0.5951
7,0,108000,18,0.71215147,-0.49390343,-1.3142327,0.5889
7,0,108500,18,0.7305804,-0.70984864,-1.0223019,0.5821
7,0,109000,18,0.73240304,-0.70671844,-1.4432156,0.5742
7,0,109500,18,0.6913254,-0.8030821,-1.1843281,0.5657
7,0,110000,18,0.6164113,-2.078332,0.40619797,0.5567
7,0,110500,18,0.64099836,-1.4672408,0.4002227,0.5473
7,0,111000,18,0.6812447,0.40069044,0.26872012,0.5378
7,0,111500,18,0.64156646,0.42436424,1.0311643,0.528
7,0,112000,18,0.613308,0.35762924,0.5912687,0.5184
7,0,112500,18,0.5940759,-0.48261878,0.7717398,0.5091
7,0,113000,19,0.54265285,0.5245114,1.3847661,0.5003
7,0,113500,19,0.5277957,0.98724306,0.9576542,0.4925
7,0,114000,19,0.54563063,0.44992742,0.74141085,0.4851
7,0,114500,19,0.5102481,-0.1753107,0.4181129,0.4782
7,0,115000,19,0.6077228,-0.99290484,-1.3979583,0.4721
7,0,115500,19,0.6838891,-0.36299023,-1.4962746,0.4668
7,0,116000,19,0.7757529,1.7153919,-0.59724087,0.4623
7,0,116500,19,0.9233713,2.0194428,0.847338,0.4587
7,0,117000,19,0.9921316,0.22627895,0.39332154,0.4557
7,0,117500,20,1.084425,-0.91144484,0.38167533,0.453
7,0,118000,20,1.1504002,-1.621776,0.661775,0.4507
7,0,118500,20,1.1526726,-1.192762,0.5358844,0.4489
7,0,119000,20,1.0791065,-0.8368797,0.40493912,0.4476
7,0,119500,20,0.9114613,-0.7599457,0.28356445,0.4466
7,0,120000,20,0.6721094,-0.8469752,0.3402853,0.4456
7,0,120500,20,0.31460238,-0.79038745,0.36263075,0.4443
7,0,121000,20,-0.048655346,-0.5320532,0.28140542,0.4423
7,0,121500,20,-0.272859,-0.53746283,0.13163415,0.4399
7,0,122000,20,-0.38241434,0.0622544,-0.23693399,0.4372
7,0,122500,20,-0.37021604,-0.03332436,-0.4774583,0.4342
7,0,123000,21,-0.32695335,0.48449105,-0.20299953,0.4307
7,0,123500,21,-0.35182735,0.16702631,-0.2560238,0.4267
7,0,124000,21,-0.3793993,-0.83054876,-0.4557125,0.4222
7,0,124500,21,-0.21148397,-1.6956785,0.107741535,0.4172
7,0,125000,21,0.14428602,-0.22631018,0.17479719,0.4113
7,0,125500,21,0.3989036,1.807488,0.06016671,0.4049
7,0,126000,21,0.46337947,1.3001252,-0.2333696,0.3977
7,0,126500,21,0.4007032,0.78500766,-0.38446304,0.3899
7,0,127000,21,0.2982959,-0.056382455,-1.0015705,0.3813
7,0,127500,21,0.20991665,-0.5525169,-0.7963051,0.372
7,0,128000,21,0.16393548,0.33918652,-1.5167692,0.3619
7,0,128500,21,0.1809389,0.85296935,-0.5509342,0.3517
7,0,129000,22,0.27715084,-0.12642153,-1.9851468,0.3412
7,0,129500,22,0.41524187,0.83495903,-1.5328289,0.3303
7,0,130000,22,0.50332284,0.9483836,-1.2554141,0.3198
7,0,130500,22,0.6153043,0.5298976,0.96059906,0.3101
7,0,131000,22,0.7649844,0.20781273,1.1539445,0.3011
7,0,131500,22,0.8758914,0.4698224,0.45982102,0.2929
7,0,132000,22,0.8614098,0.052172944,-0.62375915,0.2857
7,0,132500,23,0.6755242,0.12970848,-1.6122512,0.2799
7,0,133000,23,0.3172027,-0.16028488,-1.7117374,0.2755
7,0,133500,23,-0.06569657,-1.2773287,-0.7695916,0.2724
7,0,134000,23,-0.44531763,-1.2649772,-1.6663525,0.2709
7,0,134500,23,-0.39183894,2.083259,-1.4427516,0.2711
7,0,135000,23,-0.4093746,2.4327073,-1.1170127,0.2731
7,0,135500,23,-0.4579436,2.0906382,-0.22591986,0.2778
7,0,136000,23,-0.57623893,2.0339377,2.0955744,0.2843
7,0,136500,23,-0.23994265,2.130071,2.4258027,0.2927
7,0,137000,23,0.0114079695,1.2876939,1.9729639,0.3029
7,0,137500,23,0.08017374,-0.22839226,1.7920128,0.3139
7,0,138000,24,0.022659522,-0.6518368,1.4703597,0.3255
7,0,138500,24,-0.025382824,-0.8872587,1.2117009,0.3377
7,0,139000,24,-0.068663865,-0.8736664,0.9946739,0.3502
7,0,139500,24,-0.08594029,0.80769444,0.83434576,0.3631
7,0,140000,24,-0.07265257,1.0898154,0.71528625,0.376
7,0,140500,24,-0.023732947,-0.05280577,0.6093997,0.3885
7,0,141000,24,0.07024676,-1.0799438,0.43342268,0.4003
7,0,141500,24,0.21339235,-1.3564293,-0.050747946,0.4115
7,0,142000,24,0.31135958,-1.861146,-0.2927844,0.4218
7,0,142500,24,0.42609277,-1.8797015,-0.8404918,0.4319
7,0,143000,24,0.537466,-1.8189589,-0.751545,0.4405
7,0,143500,25,0.58540165,-0.29792845,-0.39775148,0.4485
7,0,144000,25,0.61470246,0.68165046,-0.142042,0.4555
7,0,144500,25,0.5622374,0.33530903,-0.027714698,0.4621
7,0,145000,25,0.46497262,-0.31786105,0.15980606,0.4678
7,0,145500,25,0.3009368,-0.7135663,0.1484435,0.4727
7,0,146000,25,0.08940651,-0.4807435,0.36809364,0.4767
7,0,146500,25,-0.43298805,-0.7598517,0.5847583,0.4797
7,0,147000,25,-0.59764105,-0.5201481,0.50319004,0.4819
7,0,147500,25,-0.7361027,-0.7670051,0.68449366,0.4837
7,0,148000,25,-0.88947695,-0.51736104,0.8929128,0.4853
7,0,148500,25,-0.9203321,-0.4160718,0.71988714,0.4869
7,0,149000,26,-0.946915,-1.1692809,0.49729854,0.4884
7,0,149500,26,-0.92820066,-0.0016935073,-0.12577452,0.4899
7,0,150000,26,-0.82164234,1.521452,-0.048410013,0.4909
7,0,150500,26,-0.7200307,1.2287045,-0.021802459,0.4918
7,0,151000,26,-0.6161674,0.8329427,-0.0008690321,0.4927
7,0,151500,26,-0.43973145,0.72071195,0.02467402,0.4935
7,0,152000,26,-0.31158376,0.503855,0.07987689,0.4945
7,0,152500,26,-0.17519957,0.38007164,-0.14818184,0.4958
7,0,153000,26,-0.014676675,0.6269051,-0.8171183,0.4976
7,0,153500,27,0.17829283,0.82944596,-0.89712214,0.5
7,0,154000,27,0.33733517,-0.016761638,-2.2007155,0.5031
7,0,154500,27,0.493367,-0.49032676,-1.5013503,0.5067
7,0,155000,27,0.6382283,1.257802,-0.9872347,0.5109
7,0,155500,27,0.79579306,1.9863174,-0.6632653,0.5155
7,0,156000,27,0.9283531,1.5799526,-0.43887365,0.5204
7,0,156500,27,1.0340762,1.0685151,-0.17452094,0.5256
7,0,157000,27,0.97390896,0.31872752,-0.3244375,0.531
7,0,157500,27,0.7031137,-0.33025488,-0.15655749,0.5364
7,0,158000,27,0.2922819,-0.9360586,0.18349558,0.5415
7,0,158500,27,-0.033551622,-1.5773895,1.0367893,0.5465
7,0,159000,27,-0.2489365,-1.0420808,0.9845136,0.5511
7,0,159500,27,-0.13464458,-0.4566232,0.7782106,0.5551
7,0,160000,28,-0.29160306,-0.22701988,0.7062879,0.5584
7,0,160500,28,-0.38601762,0.089180574,0.64426935,0.5607
7,0,161000,28,-0.4660003,-0.8275126,0.55527884,0.5623
7,0,161500,28,-0.6718405,-2.6027179,0.46909717,0.5626
7,0,162000,28,-0.7365395,0.00980734,0.41850305,0.5618
7,0,162500,28,-0.7607825,1.4803977,0.33956164,0.56
7,0,163000,28,-0.6827872,1.2057309,0.24111605,0.5573
7,0,163500,28,-0.5777064,0.41946214,-0.085239455,0.5539
7,0,164000,28,-0.38522738,1.2707881,-2.1449535,0.5497
7,0,164500,28,-0.110689424,0.55466175,-2.9885075,0.545
7,0,165000,28,0.24892236,-0.34717482,1.1755526,0.54
7,0,165500,28,0.58073354,-0.004339595,-0.9145624,0.5348
7,0,166000,28,0.63406074,-0.63649136,-1.454924,0.5295
7,0,166500,28,0.7690658,0.40662652,-1.2256758,0.5243
7,0,167000,28,0.7321291,2.531919,-0.75833035,0.5195
7,0,167500,28,0.4349945,1.8337374,0.7519537,0.515
7,0,168000,28,0.486736,1.1755524,0.7040845,0.5111
7,0,168500,28,0.42174307,-0.57849365,0.59808904,0.5079
7,0,169000,29,0.2639781,-0.7610455,0.5095365,0.5058
7,0,169500,29,0.041709084,-0.68922514,0.42265454,0.5046
7,0,170000,29,-0.19086695,-0.4111885,0.3322788,0.5044
7,0,170500,29,-0.40810615,-0.6612462,0.27608204,0.5051
7,0,171000,29,-0.45821574,-1.1590585,0.25285822,0.5067
7,0,171500,29,-0.458517,-0.96503866,0.29765362,0.5092
7,0,172000,29,-0.4260369,-0.8042336,0.2725115,0.5128
7,0,172500,29,-0.35743198,-0.5421064,0.26788935,0.5174
7,0,173000,30,-0.23120014,-0.34047735,0.25930184,0.5231
7,0,173500,30,-0.09563946,-0.8980405,1.1237758,0.5297
7,0,174000,30,0.07276327,-1.1510262,1.2807791,0.5369
7,0,174500,30,0.2559616,-1.2603477,0.903695,0.5446
7,0,175000,30,0.41744828,0.8013401,0.581149,0.5527
7,0,175500,30,0.555325,3.3171022,0.8569693,0.5612
7,0,176000,30,0.69041336,3.0873861,0.5254947,0.5699
7,0,176500,30,0.796013,1.8664069,0.34170026,0.5785
7,0,177000,30,0.8626637,1.610714,0.23382153,0.5873
7,0,177500,31,0.8178597,2.9474535,0.19271454,0.5961
7,0,178000,31,0.7307338,2.1751108,-0.041327056,0.6048
7,0,178500,31,0.61317325,0.3010979,-0.44627059,0.6131
7,0,179000,31,0.35399702,-0.9501162,-0.4225554,0.6213
7,0,179500,31,0.08500811,-1.8162518,-0.38680944,0.6288
7,0,180000,31,-0.1737044,-2.5511122,-0.13749366,0.6357
7,0,180500,31,-0.47582182,-2.184838,-0.05414133,0.6418
7,0,181000,31,-0.45208836,-1.8488696,-0.03192893,0.6474
7,0,181500,31,-0.51871175,-1.5569727,-0.015855204,0.6523
7,0,182000,32,-0.5856864,-1.8031905,-0.014388889,0.6563
7,0,182500,32,-0.6882375,-1.7236387,-0.07963915,0.6595
7,0,183000,32,-0.7347393,-2.0799582,-0.10537742,0.6617
7,0,183500,32,-0.763212,-1.2552859,-0.08998477,0.663
7,0,184000,32,-0.7941159,0.13933875,-0.047046702,0.6635
7,0,184500,32,-0.79818857,0.59501106,-0.044120494,0.6632
7,0,185000,32,-0.7606138,0.2756099,-0.064259924,0.6622
7,0,185500,32,-0.6936725,0.5222789,0.015726438,0.6608
7,0,186000,32,-0.59006,1.4466189,0.07590253,0.6593
7,0,186500,32,-0.47097424,1.6619296,0.13981633,0.6578
7,0,187000,32,-0.33260322,0.14033043,-0.21964432,0.6564
7,0,187500,32,-0.17030716,-0.43843898,-0.8523886,0.6553
7,0,188000,32,0.03635587,0.15518238,-2.3639793,0.6545
7,0,188500,32,0.33733517,3.6244478,-0.045810916,0.6539
7,0,189000,33,0.58920485,5.723242,-1.2601341,0.6537
7,0,189500,33,0.6572709,5.174289,-0.43002996,0.6541
7,0,190000,33,0.8193497,3.8364122,0.030192032,0.6554
7,0,190500,33,0.8175566,1.344714,0.049414903,0.6575
7,0,191000,33,0.712953,-0.57979554,0.056230567,0.6608
7,0,191500,33,0.5181468,-0.9782362,0.06676352,0.665
7,0,192000,34,0.28903276,-1.3653828,0.115131475,0.6703
7,0,192500,34,0.10573065,-2.3610497,0.40338147,0.6763
7,0,193000,34,0.0035980167,-2.1812427,0.76433384,0.6829
7,0,193500,34,-0.0028803202,1.0696384,1.1632227,0.6899
7,0,194000,34,-0.0028803202,2.9216976,0.5341274,0.6971
7,0,194500,34,0.036410205,0.82503736,-0.10366191,0.7046
7,0,195000,34,0.15865315,-0.9392311,-1.787536,0.7123
7,0,195500,34,0.2863394,0.69463646,0.84710836,0.7199
7,0,196000,35,0.4389317,3.155,0.80586946,0.7273
7,0,196500,35,0.636071,2.7564323,0.6524915,0.7345
7,0,197000,35,0.75202316,0.010117538,0.62975794,0.7409
7,0,197500,35,0.8002005,-1.698536,0.9634865,0.7464
7,0,198000,35,0.7991953,0.5206856,0.8495245,0.7511
7,0,198500,35,0.7112175,2.3991401,0.5794405,0.7548
7,0,199000,35,0.4951015,1.2339637,0.24621473,0.7575
7,0,199500,35,0.24341886,-1.7315863,-0.19212925,0.7593
7,0,200000,36,0.15357171,-3.1771915,-0.40405357,0.7602
7,0,200500,36,0.12114302,-3.9735794,-0.33062783,0.7605
7,0,201000,36,0.09813793,-4.4771776,-0.13453504,0.76
7,0,201500,36,0.11420817,-4.557378,-0.1500917,0.759
7,0,202000,36,0.21184337,-3.9067552,-0.4236987,0.7571
7,0,202500,36,0.3323281,-3.364434,-0.20848836,0.7543
7,0,203000,36,0.38124844,-3.2246332,-0.32338148,0.7503
7,0,203500,36,0.32378563,-2.2591496,-0.41678002,0.7452
7,0,204000,36,0.22173059,-2.0062907,-0.3155016,0.739
7,0,204500,36,0.09795009,-1.8988491,-0.22866106,0.7319
7,0,205000,36,-0.015717268,-1.7378327,-0.15278505,0.7241
7,0,205500,36,-0.106171735,-0.7836853,-0.08934747,0.7155
7,0,206000,36,-0.19079347,-0.36317354,-0.07463939,0.706
7,0,206500,36,-0.21850032,1.0685433,-0.21750161,0.6959
7,0,207000,36,-0.19477405,1.174274,-0.32643697,0.6851
7,0,207500,36,-0.14997491,0.4275273,-0.28849545,0.6734
7,0,208000,36,-0.0989995,0.57774335,-0.42906088,0.6609
7,0,208500,36,-0.032834392,-0.09823576,-0.47168875,0.6476
7,0,209000,36,0.06374635,-0.2632943,0.1212754,0.6336
7,0,209500,36,0.26434162,-0.62637705,0.48583913,0.6191
7,0,210000,36,0.44256467,-0.8676833,0.90366316,0.6043
7,0,210500,36,0.5572953,-0.9878477,0.9108144,0.5895
7,0,211000,36,0.63781935,-0.102211945,0.56996703,0.5748
7,0,211500,36,0.67716575,0.24398845,0.32994816,0.5606
7,0,212000,36,0.6474861,0.22961593,0.38763896,0.547
7,0,212500,36,0.5794118,-0.3929526,0.32264107,0.5341
7,0,213000,36,0.5195569,-0.62618434,-1.965286,0.5221
7,0,213500,36,0.4656415,1.9299881,-1.281422,0.5109
7,0,214000,36,0.43725654,2.856885,-0.81066597,0.5007
7,0,214500,36,0.47147903,1.2542723,-0.22654578,0.4915
7,0,215000,36,0.544727,0.39101788,0.04090707,0.4834
7,0,215500,36,0.6632866,1.9891938,-0.013992328,0.4764
7,0,216000,36,0.7074265,2.3484366,-0.027171358,0.4703
7,0,216500,36,0.71215147,0.87712723,1.1757241,0.4651
7,0,217000,36,0.6504743,-0.7154886,-0.24074379,0.4606
7,0,217500,36,0.42638895,-1.542384,-1.2948357,0.4569
7,0,218000,36,0.10619366,-1.1454426,0.09128176,0.454
7,0,218500,36,-0.247611,0.68209225,0.86219466,0.4517
7,0,219000,37,-0.20460893,0.3858526,0.64763093,0.4501
7,0,219500,37,-0.22159171,-0.23370324,0.50838304,0.4491
7,0,220000,37,-0.17694823,-1.1870798,0.3156483,0.449
7,0,220500,37,-0.11397139,-0.24006231,0.112563305,0.4495
7,0,221000,37,-0.048917044,1.8959932,0.021140568,0.4508
7,0,221500,37,0.027472476,1.0700567,0.043601878,0.4527
7,0,222000,37,0.14240067,-0.3946963,0.10582555,0.4552
7,0,222500,38,0.27032155,-0.21929781,0.085781544,0.4581
7,0,223000,38,0.384297,2.5726068,0.069956146,0.4615
7,0,223500,38,0.488402,2.9174678,0.121198654,0.4652
7,0,224000,38,0.56015253,0.7121909,0.15799862,0.4695
7,0,224500,38,0.6092108,-1.2394798,0.21905012,0.4741
7,0,225000,38,0.6239358,-1.2941452,0.21395202,0.4791
7,0,225500,38,0.61317325,-1.237205,0.5143606,0.4843
7,0,226000,38,0.5723653,-1.3992039,1.1008319,0.4896
7,0,226500,39,0.4465004,-1.6770102,0.29015866,0.4949
7,0,227000,39,0.31088066,-1.0172085,-3.066039,0.5
7,0,227500,39,0.27715084,-0.36469164,-1.9022541,0.5046
7,0,228000,39,0.509711,0.32353088,-1.0209717,0.5086
7,0,228500,39,0.70942205,1.6544096,0.8222137,0.5116
7,0,229000,39,0.86050475,3.0467548,0.74419963,0.5133
7,0,229500,39,0.8879302,1.2161319,0.85929704,0.5138
7,0,230000,39,0.88939285,-0.6050344,1.3103292,0.5129
7,0,230500,39,0.79472333,-1.3699559,0.8680494,0.5103
7,0,231000,39,0.64629334,-1.6571387,0.42735928,0.5062
7,0,231500,39,0.49463812,-1.8388869,0.41954216,0.5003
7,0,232000,39,0.39297602,-2.2423282,0.29188818,0.4929
7,0,232500,39,0.37671244,-1.3853295,0.23706318,0.484
7,0,233000,39,0.4373483,1.1037273,0.043754492,0.4736
7,0,233500,39,0.5286006,1.3144038,0.060565606,0.4619
7,0,234000,39,0.6341566,-0.00010961456,-0.06616336,0.4491
7,0,234500,39,0.73797053,-0.626894,-1.462308,0.4352
7,0,235000,39,0.862662,1.2053267,-1.0705397,0.4205
7,0,235500,39,0.9458727,2.1215405,-0.7045401,0.4051
7,0,236000,39,1.024738,0.5388933,-0.13079588,0.3893
7,0,236500,39,1.1291308,-0.16889994,0.2051518,0.3736
7,0,237000,39,1.1800345,-0.9335864,0.26784703,0.3579
7,0,237500,39,1.1655267,-1.2879037,0.25275174,0.3422
7,0,238000,39,0.99215585,-1.3115305,0.27936482,0.3269
7,0,238500,40,0.6758353,-1.219472,0.31896874,0.3121
7,0,239000,40,-0.11321518,-1.6222272,0.2517599,0.2982
7,0,239500,40,-0.47507957,-1.3992414,0.21539295,0.2851
7,0,240000,40,-0.7220988,-1.1925881,0.13292742,0.273
7,0,240500,40,-0.83989656,-0.8931431,0.068681255,0.2621
7,0,241000,40,-0.77630365,-0.05321467,0.13564967,0.2523
7,0,241500,40,-0.737719,-0.15154292,0.22885007,0.2438
7,0,242000,41,-0.7098864,-0.57172096,0.11939823,0.2362
7,0,242500,41,-0.63484216,0.31041324,-0.10007331,0.2297
7,0,243000,41,-0.57393026,2.06312,-0.07266475,0.2243
7,0,243500,41,-0.40935346,1.9965587,0.11058429,0.2197
7,0,244000,41,-0.062587336,1.1411062,0.06769175,0.2159
7,0,244500,41,0.11306479,-0.22492838,0.085202895,0.2127
7,0,245000,41,0.25051326,-0.047466595,0.042145777,0.2102
7,0,245500,41,0.29416984,-0.091961294,-0.043075252,0.2082
7,0,246000,41,0.26943794,-0.10767332,-0.8221297,0.2067
7,0,246500,41,0.30639708,-0.18346047,-0.85760754,0.2057
7,0,247000,41,0.37338245,-0.85433537,-0.08689369,0.205
7,0,247500,42,0.43871602,-1.1215527,-0.14472513,0.2045
7,0,248000,42,0.5546867,0.05898791,-0.21873069,0.2042
7,0,248500,42,0.67623335,0.8819118,-0.19725421,0.2037
7,0,249000,42,0.7659924,0.9708213,-0.23494798,0.2031
7,0,249500,42,0.83458114,1.3343364,-0.6340776,0.2023
7,0,250000,42,0.9247499,0.9767762,-0.26256955,0.2013
7,0,250500,42,0.9769878,0.3016196,0.008403036,0.2001
7,0,251000,42,0.97463393,-0.46201408,-0.40237832,0.1985
7,0,251500,42,0.93587184,-1.024625,-0.31346393,0.1967
7,0,252000,42,0.8254201,-1.330979,0.62882566,0.1945
7,0,252500,43,0.9083461,-0.78024495,0.43816712,0.1922
7,0,253000,43,0.8232954,-0.7762687,0.33554,0.1897
7,0,253500,43,0.72048,-1.3668634,0.46283388,0.1871
7,0,254000,43,0.42595583,-1.2745041,0.6219064,0.1843
7,0,254500,43,0.06351155,0.64985037,0.39750686,0.1811
7,0,255000,43,-0.08063501,1.5543095,0.25097698,0.1776
7,0,255500,43,-0.11817415,0.67896676,-0.56068105,0.1737
7,0,256000,43,-0.11413097,0.2509491,0.083854474,0.1695
7,0,256500,43,-0.12752442,-0.3027788,-0.003245483,0.1653
7,0,257000,44,0.06250708,-0.16483445,-0.29816523,0.1609
7,0,257500,44,0.2545396,-0.88880974,-0.24985185,0.1563
7,0,258000,44,0.4029694,-0.154706,-0.43424857,0.1516
7,0,258500,44,0.55195516,0.7794241,-0.35737956,0.1469
7,0,259000,44,0.6991561,0.954315,0.049473263,0.1423
7,0,259500,44,0.773644,0.5578389,0.14174253,0.1379
7,0,260000,44,0.7787544,0.15229659,0.26870522,0.1338
7,0,260500,44,0.71839756,-0.11869477,0.31644055,0.1299
7,0,261000,45,0.5954785,-0.27363896,0.2577398,0.1263
7,0,261500,45,0.49063638,-0.14781584,0.23507454,0.1229
7,0,262000,45,0.46112016,-0.17329912,0.3756286,0.1201
7,0,262500,45,0.4542159,-0.97202283,0.8660803,0.1178
7,0,263000,45,0.48068354,-1.5135449,1.0105319,0.1161
7,0,263500,45,0.55255455,-1.1637114,0.7929656,0.1151
7,0,264000,45,0.6426388,0.033044033,0.10947018,0.1142
7,0,264500,45,0.73031026,1.473484,0.030002067,0.1139
7,0,265000,45,0.83018786,1.3093184,-0.20057465,0.1139
7,0,265500,45,0.9282621,0.18015336,0.078803346,0.1141
7,0,266000,45,1.0005527,-0.83333117,0.17570528,0.114
7,0,266500,46,1.1327081,0.8822972,-0.8253066,0.1135
7,0,267000,46,1.0856866,0.8172636,-0.6014192,0.1125
7,0,267500,46,1.100554,0.4961564,-0.39896685,0.1109
7,0,268000,46,0.81619674,-0.0015525079,-0.16043966,0.1084
7,0,268500,46,0.3187213,-0.23037565,-0.13896376,0.1051
7,0,269000,46,-0.10619466,-0.96616197,0.03798378,0.1007
7,0,269500,46,-0.6161674,-0.5710395,0.06966259,0.0951
7,0,270000,46,-0.9124183,-0.23897661,0.11416706,0.0883
7,0,270500,46,-0.9474876,-0.08323813,0.08130556,0.0805
7,0,271000,46,-0.83989656,0.20663774,0.060719386,0.0716
7,0,271500,47,-0.67560935,0.29383644,0.04595411,0.0621
7,0,272000,47,-0.5899409,-1.1287154,0.015007141,0.0519
7,0,272500,47,-0.51314485,-0.25827473,-0.1527045,0.0417
7,0,273000,47,-0.43916205,1.0085105,-0.5601809,0.0316
7,0,273500,47,-0.28340507,1.4429201,-0.66896915,0.0221
7,0,274000,47,-0.11831222,0.74022156,-0.55742216,0.0134
7,0,274500,47,0.03667004,-0.026626892,-0.33453423,0.0058
7,0,275000,47,0.18716425,-0.7817912,0.16088311,-0.0003
7,0,275500,47,0.33479252,-0.0465454,-0.4974422,-0.0049
7,0,276000,47,0.4495418,0.37724224,-1.5052863,-0.0075
7,0,276500,47,0.5732948,0.17420788,-0.82570434,-0.0079
7,0,277000,47,0.70352614,-0.3097489,0.08214859,-0.0059
7,0,277500,47,0.80531996,-0.09850836,0.18168348,-0.0015
7,0,278000,47,0.8117983,0.4346901,0.14669356,0.0052
7,0,278500,48,0.6820628,0.0048488625,0.104695104,0.0143
7,0,279000,48,0.34372663,-0.2212154,0.047263432,0.0255
7,0,279500,48,-0.008177885,-0.58819443,0.04584264,0.0384
7,0,280000,48,-0.2920568,-0.49621582,-1.323942,0.0526
7,0,280500,48,-0.6553042,-0.20308287,-2.4800885,0.0679
7,0,281000,48,-0.5843818,-0.33469167,-1.2005944,0.0839
7,0,281500,48,-0.48480472,-0.22651227,-0.8584511,0.1006
7,0,282000,48,-0.34114784,-0.56077474,-0.36189172,0.1176
7,0,282500,48,-0.14870729,0.601027,-0.18028085,0.1345
7,0,283000,48,0.0659864,0.7958176,-0.045664135,0.1513
7,0,283500,49,0.18886071,0.92179585,0.42898348,0.1675
7,0,284000,49,0.20809264,0.11634645,0.6440946,0.1828
7,0,284500,49,0.22006549,-0.37959996,0.34345168,0.1969
7,0,285000,49,0.24193634,-0.3535198,-0.5917418,0.2098
7,0,285500,49,0.29162666,-0.4143516,-0.7198236,0.2212
7,0,286000,49,0.38696396,-0.59445006,-0.7132542,0.231
7,0,286500,49,0.5004222,-1.9705144,-0.51559913,0.2394
7,0,287000,50,0.5666402,-1.413426,-0.27701297,0.2461
7,0,287500,50,0.66749966,0.8331025,-0.19403328,0.2514
7,0,288000,50,0.7439857,1.2158735,-0.07384247,0.2545
7,0,288500,50,0.7837188,0.538522,0.1496974,0.2561
7,0,289000,50,0.77339697,0.0835641,-0.061337214,0.2566
7,0,289500,50,0.6686423,0.5609174,-0.18344575,0.256
7,0,290000,50,0.50046766,0.14583412,-0.15485482,0.2545
7,0,290500,50,0.23277514,-0.12075806,-0.1438255,0.2521
7,0,291000,50,-0.05443206,-0.6721266,-0.11483216,0.2492
7,0,291500,50,-0.35743198,-0.46535578,-0.063532166,0.2461
7,0,292000,50,-0.58035976,-0.21068275,-0.046351045,0.2428
7,0,292500,50,-0.6451505,-0.9745138,-0.04102504,0.2396
7,0,293000,50,-0.68876135,-0.4353652,-0.036187515,0.2367
7,0,293500,50,-0.6553042,1.3103807,-0.015198354,0.2341
7,0,294000,50,-0.639182,1.46728,0.37442693,0.2315
7,0,294500,50,-0.6157832,0.52885884,2.0851068,0.2299
7,0,295000,50,-0.5819924,0.8897279,2.1534877,0.2293
7,0,295500,50,-0.5013794,0.8876646,0.5785283,0.2305
7,0,296000,50,-0.40014473,0.4935385,-0.9974041,0.2329
7,0,296500,50,-0.30092576,0.1933039,-0.8894375,0.2366
7,0,297000,50,-0.18703291,1.1410028,-0.6041263,0.2415
7,0,297500,50,-0.008498983,1.6256411,-0.42556712,0.2477
7,0,298000,50,0.24341886,0.25799438,-0.27256793,0.2551
7,0,298500,50,0.4135433,-0.42212537,-0.20697653,0.2633
7,0,299000,51,0.54475415,-1.2343051,-0.16506708,0.2724
7,0,299500,51,0.59533525,-2.0210345,-0.13606614,0.2821
7,0,300000,51,0.5828695,-2.3739324,-0.11077871,0.2921
7,0,300500,51,0.45409626,-0.72628915,-0.07836893,0.3029
7,0,301000,51,0.28503183,0.31437063,-0.05773577,0.3141
7,0,301500,51,0.113304265,0.0039887666,-0.043037318,0.3256
7,0,302000,51,-0.13464458,-0.48678297,-0.030013528,0.337
7,0,302500,51,-0.25834635,-0.6141994,-0.03254376,0.3479
7,0,303000,51,-0.32222754,-0.7874923,-0.029021395,0.3584
7,0,303500,51,-0.36576754,-1.2216481,-0.03085655,0.3681
7,0,304000,51,-0.38924706,-1.5890219,-0.021757228,0.377
7,0,304500,51,-0.4353685,-1.1112972,-0.017588811,0.3848
7,0,305000,51,-0.35960072,0.59575367,0.05872199,0.3911
7,0,305500,51,-0.29126236,1.042134,0.03816003,0.3958
7,0,306000,51,-0.2432201,0.7741084,0.023741124,0.3988
7,0,306500,51,-0.15586859,-0.2844066,0.6183306,0.4
7,0,307000,51,-0.113103546,0.05955661,1.0028257,0.3758
7,0,307500,51,-0.05932971,1.2259502,0.1433848,0.351
7,0,308000,51,-0.035938933,0.86200273,-0.85865045,0.3249
7,0,308500,51,0.007675878,1.8462205,1.1923608,0.2983
7,0,309000,51,0.20626266,1.680504,2.5551543,0.2712
7,0,309500,51,0.5021561,0.35363895,2.1286523,0.2437
7,0,310000,51,0.6221381,-0.86655533,1.5611247,0.2159
14,0,500,1,0.21842681,-0.23965341,-1.1966332,-0.0018
14,0,1000,1,0.028037986,-0.1757008,1.7628161,0.0042
14,0,1500,1,0.15651037,0.080039114,2.3345273,0.0109
14,0,2000,1,0.22200875,0.21788949,1.3731073,0.0183
14,0,2500,1,0.16720797,0.112097666,1.7430531,0.0264
14,0,3000,1,0.10648082,0.12994349,1.713297,0.035
14,0,3500,1,0.21769239,0.18916792,1.4949051,0.0442
14,0,4000,1,0.14498596,-0.3489702,1.2568641,0.0541
14,0,4500,1,0.09286094,-0.055461258,1.273367,0.0778
14,0,5000,1,0.04792267,0.09293116,0.9146995,0.0937
14,0,5500,1,0.12939917,0.048163865,0.68120325,0.1069
14,0,6000,1,0.23290709,-0.0678504,0.4308434,0.1189
14,0,6500,2,0.2017001,-0.061637033,0.3180621,0.1302
14,0,7000,2,0.15303446,0.15960975,0.20380512,0.1409
14,0,7500,2,0.23489515,-0.10874491,0.15438376,0.1511
14,0,8000,2,0.34765133,0.22551754,-0.26325032,0.1609
14,0,8500,2,0.4045701,0.017026506,-1.2967467,0.1701
14,0,9000,2,0.4923716,-0.041582223,-0.43927956,0.1788
14,0,9500,2,0.56797844,0.045912575,-0.20010805,0.1871
14,0,10000,2,0.5885874,0.069769666,-1.3310993,0.1949
14,0,10500,2,0.59804916,0.030773943,-1.9637809,0.2021
14,0,11000,2,0.601468,-0.041544624,-1.8998513,0.2088
14,0,11500,2,0.6077679,-0.04855699,-1.2444919,0.2147
14,0,12000,2,0.7156607,0.00534236,-0.6718966,0.2198
14,0,12500,2,0.89389014,0.09164336,2.0349069,0.224
14,0,13000,2,0.97341996,0.014779917,1.7126396,0.2273
14,0,13500,2,0.9076063,-0.012146259,1.0386741,0.2297
14,0,14000,2,0.75115013,0.11894554,0.8871812,0.2314
14,0,14500,2,0.46069258,0.26530287,1.4755617,0.2324
14,0,15000,3,0.3460553,-0.17273042,1.0816869,0.2329
14,0,15500,3,0.40649012,-0.1553922,0.7686166,0.2329
14,0,16000,3,0.37745434,0.19445069,0.5313363,0.2329
14,0,16500,3,0.34673333,0.17372379,0.38158256,0.2325
14,0,17000,3,0.33208686,-0.019976422,0.0027636343,0.2319
14,0,17500,3,0.35431597,-0.025400197,0.0006150824,0.2309
14,0,18000,3,0.42819074,0.16025835,0.08315385,0.2301
14,0,18500,3,0.5817499,0.4046384,1.0563049,0.2295
14,0,19000,3,0.72923774,-0.0043066954,0.9147774,0.2291
14,0,19500,3,0.7117267,-0.028187286,0.62194955,0.2289
14,0,20000,3,0.63944,-0.038414437,0.5144902,0.2289
14,0,20500,3,0.39012572,-0.4815425,0.33929053,0.2289
14,0,21000,3,-0.049187515,-0.15623349,0.32235307,0.2291
14,0,21500,3,-0.34650934,0.006912153,0.21646474,0.2294
14,0,22000,3,-0.57079875,-0.15860699,0.03437971,0.2296
14,0,22500,3,-0.5413659,-0.034837756,-0.21288206,0.2299
14,0,23000,3,-0.4983772,0.14108713,-0.13187,0.2299
14,0,23500,3,-0.49838233,0.17213519,-0.13782369,0.2295
14,0,24000,3,-0.50651795,-0.18490806,-0.422043,0.2291
14,0,24500,3,-0.45757377,-0.0679256,-0.4523156,0.2285
14,0,25000,3,-0.06978742,0.29648253,-0.36667028,0.2279
14,0,25500,3,0.20794539,0.21806808,-0.2662019,0.2269
14,0,26000,3,0.22262034,0.24484856,-0.5006602,0.2255
14,0,26500,3,0.07314109,-0.0090865735,-0.53736156,0.2235
14,0,27000,3,-0.13999148,0.05173585,-0.34476632,0.2211
14,0,27500,3,-0.35743198,-0.40846252,-0.50888705,0.2181
14,0,28000,3,-0.39682248,0.3052621,-0.24204552,0.2149
14,0,28500,3,-0.3951567,-0.328295,-0.13133162,0.2113
14,0,29000,3,-0.3603061,-0.12921803,-0.16969946,0.2076
14,0,29500,3,-0.31860775,0.9255793,0.84854347,0.2039
14,0,30000,3,0.0069484124,1.2114179,0.815403,0.2001
14,0,30500,3,0.23229736,1.1077834,0.69059,0.1965
14,0,31000,3,0.28902155,0.9674937,1.1483074,0.1931
14,0,31500,3,0.19708747,1.2936158,0.9418028,0.1898
14,0,32000,3,0.028740447,1.7648121,0.52457315,0.1869
14,0,32500,3,-0.35101065,1.28564,-0.040788095,0.1845
14,0,33000,3,-0.5723833,1.4649864,-0.036392946,0.1826
14,0,33500,3,-0.655584,1.6520174,-0.24408348,0.1813
14,0,34000,3,-0.6161674,1.837126,-1.0410839,0.1807
14,0,34500,3,-0.6741266,0.8570724,-0.8797832,0.1805
14,0,35000,4,-0.57475126,2.1197546,-0.7224457,0.181
14,0,35500,4,-0.45868003,2.2817721,-0.45947823,0.1819
14,0,36000,4,-0.38924706,2.3119931,-0.08942626,0.183
14,0,36500,4,-0.1546122,4.0410166,0.36503816,0.1845
14,0,37000,4,0.0483664,3.433563,0.07145135,0.1862
14,0,37500,4,0.119252905,1.9926248,0.04760747,0.1879
14,0,38000,4,0.11282874,2.809608,-0.09314705,0.1899
14,0,38500,5,0.1446994,3.7727182,-0.16799942,0.1919
14,0,39000,5,0.30916017,2.5013459,-0.2119687,0.1939
14,0,39500,5,0.38943893,3.384138,-0.5223587,0.1959
14,0,40000,5,0.21842681,1.9260355,-0.44142285,0.1977
14,0,40500,5,-0.02945505,1.7218778,-0.56371754,0.1991
14,0,41000,5,-0.12452679,1.1272647,-0.56696445,0.2
14,0,41500,5,-0.022326993,1.4011842,0.8751423,0.2007
14,0,42000,5,0.22673091,1.8358994,0.796764,0.2014
14,0,42500,5,0.34345886,3.421216,0.5824309,0.2021
14,0,43000,5,0.39012572,1.7235464,0.41470432,0.2027
14,0,43500,5,0.20233631,1.6749392,0.9813991,0.2035
14,0,44000,5,0.3438094,0.60943055,0.73543733,0.2042
14,0,44500,5,0.15654436,-1.8466606,0.562716,0.2051
14,0,45000,6,-0.08878943,-1.6000386,0.4048542,0.2064
14,0,45500,6,-0.33810905,-0.2790768,0.23572117,0.2079
14,0,46000,6,-0.6927746,0.4722946,0.18521956,0.2095
14,0,46500,6,-0.75912017,0.8904564,0.15024978,0.2115
14,0,47000,6,-0.78895956,1.8987474,-9.669711e-06,0.2135
14,0,47500,6,-0.78394425,-1.0363609,-0.041973986,0.2159
14,0,48000,6,-0.7320001,-1.8816566,-0.059540287,0.2184
14,0,48500,6,-0.66031826,-0.5483997,0.042546716,0.2215
14,0,49000,6,-0.5296056,-1.6707122,-0.1544705,0.2248
14,0,49500,6,-0.51514083,-2.4796395,-0.25550878,0.2283
14,0,50000,6,-0.43432498,-1.5720456,-0.19275752,0.2317
14,0,50500,6,-0.37099916,-0.90425855,-0.220225,0.2351
14,0,51000,6,-0.43916205,-2.154462,-0.2098111,0.2383
14,0,51500,6,-0.42887312,-1.1344447,-0.15451574,0.2412
14,0,52000,6,-0.40772092,1.191006,-0.37659746,0.2439
14,0,52500,6,-0.4013043,-0.32643852,-0.6502059,0.2461
14,0,53000,6,-0.46367455,-2.787991,-0.8543064,0.2477
14,0,53500,6,-0.5878005,-1.2741656,-0.8907314,0.2489
14,0,54000,6,-0.67078424,0.6962157,-1.3997316,0.2494
14,0,54500,6,-0.76819247,1.4924484,-2.1424606,0.2493
14,0,55000,6,-0.7592515,2.5802536,0.7673356,0.2487
14,0,55500,6,-0.5650482,-0.72417885,0.74872494,0.2476
14,0,56000,6,-0.3402675,-1.3710792,0.7012073,0.2459
14,0,56500,6,-0.19079347,1.521419,0.35404968,0.2437
14,0,57000,6,-0.27109143,-1.1002617,0.44240645,0.2411
14,0,57500,6,0.015598575,-1.6506809,1.2244785,0.2383
14,0,58000,6,0.18378945,-3.1823146,0.9136169,0.2353
14,0,58500,6,0.26533672,-1.7562377,0.7389892,0.2322
14,0,59000,6,0.20118868,-1.3562602,0.59325624,0.2293
14,0,59500,6,-0.017906703,-0.5445363,0.43396252,0.2265
14,0,60000,6,-0.42231184,0.7736055,0.31367832,0.2238
14,0,60500,6,-0.5300372,1.2626947,0.26006025,0.2216
14,0,61000,6,-0.61942476,0.7301213,0.20165162,0.2197
14,0,61500,6,-0.8348648,0.25398532,0.11238035,0.2182
14,0,62000,7,-0.73750424,0.44617212,0.057306156,0.2168
14,0,62500,7,-0.6723057,0.98547584,-0.01603583,0.2156
14,0,63000,7,-0.6274291,-0.94640326,-0.1674587,0.2145
14,0,63500,7,-0.6127454,-3.0159588,-0.10937338,0.2137
14,0,64000,7,-0.6401757,-2.2768402,-0.04528975,0.2128
14,0,64500,7,-0.67753744,-0.51684874,0.02171192,0.2121
14,0,65000,7,-0.7312947,0.6108171,0.00981916,0.2115
14,0,65500,7,-0.7126817,-4.372509,0.030349605,0.2111
14,0,66000,7,-0.6792314,-5.2760468,-0.1455953,0.2109
14,0,66500,7,-0.59344965,-0.81534433,-0.6369609,0.2108
14,0,67000,7,-0.5509493,1.5762913,-0.877796,0.2109
14,0,67500,7,-0.6234771,1.2504747,-0.74699694,0.2111
14,0,68000,7,-0.76819247,1.0924474,-0.50933874,0.2113
14,0,68500,7,-0.76342493,2.8729825,-0.713867,0.2116
14,0,69000,8,-0.80741,0.59344596,-0.43479162,0.2118
14,0,69500,8,-0.8698041,-3.69269,-0.4711463,0.2122
14,0,70000,8,-0.9545591,-2.521366,-0.20452596,0.2128
14,0,70500,8,-0.93291986,0.6052006,1.0499355,0.2139
14,0,71000,8,-0.8374253,0.027328858,0.8606705,0.2153
14,0,71500,8,-0.33810905,-1.0905328,0.72556037,0.217
14,0,72000,8,-0.39060685,0.3231831,0.51031035,0.2188
14,0,72500,8,-0.48290122,-1.6780959,0.21272352,0.221
14,0,73000,8,-0.6218063,-1.1622404,0.0068471376,0.2233
14,0,73500,9,-0.7529683,0.5415159,-1.5169244,0.2256
14,0,74000,9,-0.83852744,1.5173208,-2.8853407,0.2281
14,0,74500,9,-0.9614204,2.3248897,-2.4023728,0.2308
14,0,75000,9,-0.53219646,2.669544,0.659372,0.2338
14,0,75500,9,-0.08233983,3.474763,0.9667725,0.237
14,0,76000,9,0.039714742,-1.1134921,0.9234825,0.2404
14,0,76500,9,0.09343742,-2.194506,1.3934703,0.2439
14,0,77000,9,0.14014804,-2.1882174,1.0939753,0.2475
14,0,77500,9,0.073766865,-1.7091392,0.82849187,0.2511
14,0,78000,9,-0.16600652,-0.16321766,0.62638265,0.2543
14,0,78500,9,-0.4110445,1.8048842,0.4983578,0.2575
14,0,79000,9,-0.5944486,1.9605663,0.4327489,0.2606
14,0,79500,9,-0.7098864,2.1594553,0.21841429,0.2637
14,0,80000,9,-0.7728041,0.9538826,0.26066312,0.2665
14,0,80500,9,-0.7510687,-1.356387,0.16678688,0.2693
14,0,81000,9,-0.63862675,-0.51866764,0.04099315,0.2719
14,0,81500,9,-0.57633036,0.72164726,-0.114430346,0.2741
14,0,82000,9,-0.45906636,1.1574621,-1.0928391,0.2759
14,0,82500,9,-0.33431897,0.44023606,-1.3265913,0.2772
14,0,83000,9,-0.17543477,-0.2844912,-0.6696447,0.2781
14,0,83500,9,0.14518283,-1.1069874,-1.2880986,0.2785
14,0,84000,9,0.24341886,-1.6413326,-1.5086815,0.2789
14,0,84500,9,0.0004167815,-3.061215,0.027138887,0.2792
14,0,85000,9,-0.08918373,-2.1985855,-1.1301634,0.2797
14,0,85500,9,-0.16583557,-0.28923348,-0.8336522,0.2803
14,0,86000,9,-0.38292262,1.4294451,1.0643942,0.2808
14,0,86500,9,-0.16404253,1.719462,1.515882,0.2814
14,0,87000,9,0.054975174,-1.5875742,1.090546,0.2821
14,0,87500,9,0.14776519,-1.1378897,0.8505163,0.2827
14,0,88000,9,0.104543254,0.20220566,0.6064866,0.2837
14,0,88500,9,-0.01821014,1.8615096,0.5336176,0.2851
14,0,89000,9,-0.19079347,-0.6886376,0.53643006,0.287
14,0,89500,9,-0.12700006,-1.7702436,0.21718025,0.2893
14,0,90000,9,-0.22629818,0.1470655,0.32950577,0.2922
14,0,90500,9,-0.19931002,2.334191,0.16244572,0.2956
14,0,91000,10,-0.055042986,0.8466385,-0.28889754,0.2994
14,0,91500,10,-0.055042986,-1.8131874,-0.87841403,0.3033
14,0,92000,10,0.0096887695,-0.55604184,-0.6536915,0.3073
14,0,92500,10,0.15085357,-0.19791761,-0.22739609,0.3109
14,0,93000,10,0.26932433,-2.4164107,-0.6610336,0.3145
14,0,93500,10,0.33499473,-1.2584677,-2.278944,0.3182
14,0,94000,10,0.3403218,1.049795,-0.8407999,0.3218
14,0,94500,10,0.31753716,2.668209,0.94028395,0.3253
14,0,95000,10,0.339436,3.2965634,1.4018337,0.3285
14,0,95500,10,0.4711868,-0.40615955,1.0884491,0.3311
14,0,96000,10,0.5460697,-3.1038296,0.81791633,0.3333
14,0,96500,10,0.4002112,-1.2858733,0.73950714,0.3349
14,0,97000,10,0.11476016,-1.7430308,0.58032227,0.3362
14,0,97500,10,-0.09146152,-3.227613,0.250998,0.3369
14,0,98000,10,-0.25080842,-0.37777168,-0.33107868,0.3372
14,0,98500,10,-0.40810615,1.3828543,-0.21518527,0.3371
14,0,99000,10,-0.45556155,1.8707732,-0.45337397,0.3367
14,0,99500,10,-0.40261072,0.85508436,-1.1997955,0.3362
14,0,100000,11,-0.33442238,0.85746723,-1.487224,0.3357
14,0,100500,11,-0.2857025,1.4796363,-2.025078,0.3351
14,0,101000,11,-0.23980118,1.5488999,-0.67757976,0.3341
14,0,101500,11,-0.15163557,1.2925019,-0.24737357,0.3331
14,0,102000,11,-0.12737031,1.5594231,-2.137536,0.3321
14,0,102500,11,-0.14889784,0.6022631,-1.282516,0.3312
14,0,103000,11,-0.19771212,-0.027989887,-0.64609295,0.3306
14,0,103500,11,-0.4645833,0.5526689,1.9649148,0.3302
14,0,104000,11,-0.020526603,0.34868518,2.3090076,0.3302
14,0,104500,12,0.18550552,-2.1615498,1.743803,0.3303
14,0,105000,12,0.07861417,-5.160963,1.3246069,0.3303
14,0,105500,12,-0.20460893,-2.079789,0.9519564,0.3302
14,0,106000,12,-0.8454371,0.21083951,0.81266004,0.33
14,0,106500,12,-1.2981724,0.07285755,0.64202684,0.3299
14,0,107000,12,-1.2473434,1.625627,0.47603685,0.3297
14,0,107500,12,-1.2637202,-0.39545768,0.3931129,0.3293
14,0,108000,12,-1.3401319,-1.0908383,0.098852314,0.3287
14,0,108500,12,-1.2917173,0.24376756,0.08738822,0.3277
14,0,109000,12,-1.2511345,0.13552237,-0.03943179,0.3265
14,0,109500,12,-1.1761708,1.6170919,-0.27714047,0.3248
14,0,110000,12,-1.1474417,0.759797,-0.1860431,0.3228
14,0,110500,12,-1.101522,-2.0187504,-0.118322134,0.3204
14,0,111000,12,-0.6131642,-1.2036096,-0.34102014,0.3172
14,0,111500,12,-0.57556224,1.0448883,-0.3732954,0.3133
14,0,112000,12,-0.5714728,-0.40069348,-0.3486015,0.3089
14,0,112500,12,-0.57623893,-0.36242154,-0.41804382,0.3041
14,0,113000,12,-0.80467415,0.028320555,-0.1890694,0.2992
14,0,113500,12,-0.92470765,0.5125922,-0.17060931,0.2941
14,0,114000,12,-0.9329838,1.1618003,-0.1881686,0.2885
14,0,114500,12,-0.952996,2.123773,-0.8873272,0.2829
14,0,115000,12,-0.95421904,1.1685306,0.32023633,0.2773
14,0,115500,12,-0.85988843,0.28415447,1.2215111,0.2717
14,0,116000,12,-0.522076,0.92083704,0.86092526,0.2663
14,0,116500,12,-0.42953265,1.1408854,0.64263237,0.2611
14,0,117000,12,-0.43298805,-1.2290505,0.37009746,0.2563
14,0,117500,13,-0.9916077,-0.91217333,0.24748233,0.2518
14,0,118000,13,-1.1134745,-0.29728925,0.16900197,0.2471
14,0,118500,13,-1.231133,0.10670679,0.0013002378,0.2425
14,0,119000,13,-1.19062,0.6922254,0.02688531,0.2377
14,0,119500,13,-1.161283,-0.23702613,0.027430983,0.2325
14,0,120000,13,-1.1491061,0.16924,-0.018040523,0.227
14,0,120500,13,-1.1379083,0.43406028,0.009158516,0.2209
14,0,121000,13,-1.1188097,-0.39928818,-0.21785614,0.2143
14,0,121500,13,-1.0741439,-0.5502609,-0.22371615,0.2069
14,0,122000,13,-1.0418476,-0.49038786,-0.37265342,0.1984
14,0,122500,13,-0.9801319,-2.488283,-0.9592052,0.189
14,0,123000,14,-0.93142617,-3.2269738,-0.63382053,0.1788
14,0,123500,14,-0.7487869,-1.7673438,-0.46545902,0.1675
14,0,124000,14,-0.48186854,-0.0036486983,-1.4713163,0.1551
14,0,124500,14,-0.61956733,0.76814884,-0.36283132,0.1413
14,0,125000,14,-0.6439729,1.6228917,-0.75969803,0.1263
14,0,125500,14,-0.66556096,1.1795192,-2.0286956,0.1107
14,0,126000,14,-0.6936725,1.5405574,-1.0681705,0.0947
14,0,126500,14,-0.7200833,1.8799475,-0.18250644,0.0783
14,0,127000,14,-0.7255145,0.59634584,-2.2654922,0.0618
14,0,127500,14,-0.7098864,-0.26725167,-1.6703564,0.0454
14,0,128000,14,-0.7533046,-0.07132839,1.1782902,0.0294
14,0,128500,14,-0.52939993,0.44483262,2.0876188,0.0139
14,0,129000,15,-0.27873152,-1.0750511,1.638114,-0.0008
14,0,129500,15,-0.15885454,-0.99650973,1.2478487,-0.0143
14,0,130000,15,0.12100443,0.6660418,0.9871725,-0.0267
14,0,130500,15,-0.07060915,1.1732259,0.8642819,-0.0379
14,0,131000,15,-0.23088662,-0.88533175,0.7256485,-0.0481
14,0,131500,15,-0.37126976,-2.3041425,0.5934882,-0.0573
14,0,132000,15,-0.5354943,-1.1400423,0.26912308,-0.0653
14,0,132500,15,-0.5494046,-0.94394046,0.23768677,-0.0724
14,0,133000,15,-0.5736676,-1.6423666,0.05374148,-0.0788
14,0,133500,15,-0.5991844,0.30719376,0.0029924086,-0.0845
14,0,134000,15,-0.48186854,1.3007315,-0.0001964242,-0.0897
14,0,134500,15,-0.26560605,0.41789237,0.89984053,-0.0946
14,0,135000,15,0.047432378,-0.41320482,0.77922547,-0.0991
14,0,135500,15,0.17972013,2.1051376,0.5603294,-0.1034
14,0,136000,15,0.14856713,1.5362945,0.3639792,-0.1073
14,0,136500,16,0.13696489,1.7299336,0.24899767,-0.1111
14,0,137000,16,-0.28063047,-0.7598235,0.01888463,-0.115
14,0,137500,16,-0.45827088,-0.5589746,-0.10353322,-0.119
14,0,138000,16,-0.5895267,1.1836692,-0.10123147,-0.1229
14,0,138500,16,-0.6718405,2.6782718,-0.14641818,-0.1267
14,0,139000,16,-0.6633198,3.9378235,-0.104677096,-0.13
14,0,139500,16,-0.66475093,3.919663,-0.26857662,-0.133
14,0,140000,16,-0.6718405,4.028947,-0.35327882,-0.1355
14,0,140500,16,-0.6016249,0.13599236,-0.16928802,-0.137
14,0,141000,16,-0.47326672,-3.7635186,0.02985529,-0.1377
14,0,141500,16,-0.36394674,-2.1773887,-0.027022539,-0.1375
14,0,142000,16,-0.29266757,0.48693034,-0.04536212,-0.1361
14,0,142500,16,-0.29892564,2.0574188,-0.030459989,-0.1338
14,0,143000,16,-0.3233874,1.1511688,-0.3381596,-0.1307
14,0,143500,16,-0.4031093,-2.2395225,-0.2731232,-0.1268
14,0,144000,16,-0.5070003,-4.253595,-0.769638,-0.1224
14,0,144500,16,-0.36383373,-8.42098,-0.4359994,-0.1175
14,0,145000,16,-0.18171845,-3.1584857,-0.6062019,-0.1121
14,0,145500,16,-0.28328755,1.0846078,-1.1866509,-0.1067
14,0,146000,16,-0.44960406,2.4816575,-1.184551,-0.1015
14,0,146500,16,-0.6218063,2.8538675,-1.7476144,-0.0965
14,0,147000,16,-0.6587795,3.1858225,0.9101666,-0.0923
14,0,147500,16,-0.56983465,2.3885088,1.1132983,-0.0888
14,0,148000,16,-0.32828432,2.9968786,0.4012163,-0.0863
14,0,148500,16,-0.047664355,-2.6993353,0.23842387,-0.0846
14,0,149000,16,-0.07403912,-3.4533389,0.23947611,-0.0839
14,0,149500,16,-0.15330291,-1.3226836,1.3509101,-0.0843
14,0,150000,16,-0.048091214,-1.765163,1.2365642,-0.0859
14,0,150500,16,0.14570528,-1.8145221,0.9460827,-0.0888
14,0,151000,16,0.17500561,-3.253618,0.6706277,-0.0929
14,0,151500,16,-0.21833737,-1.5546792,0.52913755,-0.0981
14,0,152000,16,-0.34274232,0.870552,0.4675042,-0.1044
14,0,152500,16,-0.39315638,1.8629054,0.39563787,-0.1115
14,0,153000,16,-0.3918443,2.3497903,0.23090671,-0.1189
14,0,153500,16,-0.47582182,1.9819934,-0.08636903,-0.1264
14,0,154000,16,-0.4145269,1.7278985,-0.19740623,-0.1337
14,0,154500,16,-0.414118,1.4345258,-2.2720428,-0.1401
14,0,155000,17,-0.41946813,1.7358415,-0.99991536,-0.1457
14,0,155500,17,-0.13464458,-3.7734778,-0.8786218,-0.1495
14,0,156000,17,0.13807516,-3.276253,1.130231,-0.1519
14,0,156500,17,0.415917,-2.6407125,1.1480474,-0.1527
14,0,157000,17,0.34807318,-2.9406369,0.81132823,-0.1519
14,0,157500,17,0.17158768,-1.2043662,0.54938525,-0.1496
14,0,158000,17,0.028297652,0.83181477,0.30348036,-0.1455
14,0,158500,17,-0.87474203,2.5055897,0.12519813,-0.1395
14,0,159000,17,-0.9637732,3.8552873,0.0789688,-0.1321
14,0,159500,17,-1.0752627,2.7439022,0.19476037,-0.1235
14,0,160000,17,-0.9671444,2.1884446,0.07355,-0.1141
14,0,160500,17,-0.95850116,0.22599225,0.057770416,-0.1043
14,0,161000,17,-0.9614204,-1.2651511,0.04291118,-0.0943
14,0,161500,17,-0.7559586,-0.5662502,-0.4609133,-0.0845
14,0,162000,17,-0.7312651,0.31193134,-0.5525389,-0.0752
14,0,162500,17,-0.7114876,0.69617337,-0.54981196,-0.0668
14,0,163000,17,-0.6274291,-0.5239034,-0.55734223,-0.0605
14,0,163500,17,-0.6274291,-4.4109406,-0.63996154,-0.0559
14,0,164000,17,-0.6612123,-2.6158967,-0.6938137,-0.0533
14,0,164500,17,-0.76819247,1.1909636,-1.3684951,-0.0525
14,0,165000,17,-0.78841275,-0.92698765,-2.2913022,-0.0537
14,0,165500,17,-0.7857167,-2.05322,-0.8786697,-0.0567
14,0,166000,17,-0.76819247,-0.16992453,-0.30305004,-0.0613
14,0,166500,18,-0.6546169,2.16408,1.2699307,-0.067
14,0,167000,18,-0.39415762,1.1316687,0.899671,-0.0733
14,0,167500,18,-0.25701052,1.2915525,0.73034626,-0.0799
14,0,168000,18,-0.2657133,1.5720707,0.29457363,-0.0862
14,0,168500,18,-0.6327079,2.5363748,0.009243139,-0.0922
14,0,169000,18,-0.71697694,3.2185767,1.1073775,-0.0975
14,0,169500,18,-0.6071006,2.1540785,1.4183098,-0.1021
14,0,170000,18,-0.07703491,0.70319986,1.0707419,-0.1057
14,0,170500,18,-0.30078572,-1.0691197,0.72034556,-0.1083
14,0,171000,18,-0.5905288,-1.1520085,0.57774657,-0.1092
14,0,171500,18,-1.0260711,-1.2724079,0.40802056,-0.1085
14,0,172000,18,-1.2726321,0.6188023,0.3313412,-0.1064
14,0,172500,18,-1.4101226,-1.5338254,0.18414222,-0.1029
14,0,173000,18,-1.3937402,-3.8302348,-0.8326356,-0.0984
14,0,173500,18,-1.3590378,-1.7590295,-0.69050837,-0.0933
14,0,174000,18,-1.2511345,0.22057787,-0.5541715,-0.0879
14,0,174500,19,-1.1731749,1.5715114,-0.4349492,-0.0825
14,0,175000,19,-1.1206138,0.0031333705,-0.52051747,-0.0772
14,0,175500,19,-1.0306003,-0.45504403,-0.25961298,-0.0721
14,0,176000,19,-0.8504575,1.8340428,-0.32236308,-0.0672
14,0,176500,19,-0.76072335,1.5645038,-0.59000504,-0.0628
14,0,177000,19,-0.90409464,1.0297027,-0.4566632,-0.0593
14,0,177500,19,-0.8499054,1.0724865,-1.8100414,-0.0563
14,0,178000,19,-0.8005682,0.35619104,-1.4390367,-0.0537
14,0,178500,19,-0.72596496,-0.117580876,0.07955854,-0.0519
14,0,179000,19,-0.85258466,0.028936252,-0.2669708,-0.0506
14,0,179500,19,-0.87990606,1.6605102,0.34007987,-0.0496
14,0,180000,19,-0.78378916,1.583924,1.838447,-0.0489
14,0,180500,19,-0.30631548,-2.290207,1.2433121,-0.0481
14,0,181000,19,-0.34030196,-6.1096115,0.7883764,-0.0466
14,0,181500,19,-0.4228523,-4.889577,0.47339806,-0.0444
14,0,182000,19,-0.56468195,-0.24433929,0.39893875,-0.0416
14,0,182500,19,-0.9612765,2.0043278,0.34043354,-0.0383
14,0,183000,19,-1.229542,0.7968657,0.3812391,-0.0347
14,0,183500,19,-0.99865,-0.052086674,0.09279622,-0.0308
14,0,184000,19,-1.0118121,-0.013053355,0.021031432,-0.0263
14,0,184500,19,-1.0260711,0.20458855,-0.19912146,-0.0208
14,0,185000,19,-0.95554703,1.9863551,-0.4866116,-0.0149
14,0,185500,19,-0.7544021,2.722146,-0.7023273,-0.0085
14,0,186000,19,-0.56363547,0.8818084,-1.1979197,-0.0015
14,0,186500,19,-0.43916205,-0.3065247,-1.5355843,0.0058
14,0,187000,20,-0.18633193,0.3239116,-0.22118942,0.0133
14,0,187500,20,-0.0022517897,1.3708788,1.5062472,0.0211
14,0,188000,20,0.10681507,2.3177505,1.0680234,0.0289
14,0,188500,20,0.028063824,2.7521508,0.73605716,0.0365
14,0,189000,20,-0.21148397,3.1066418,0.4266146,0.0442
14,0,189500,20,-0.80157477,0.16409352,0.42133033,0.0518
14,0,190000,20,-0.96887165,-1.8258069,0.3632447,0.0595
14,0,190500,20,-1.0396241,-1.0908242,0.19073552,0.0673
14,0,191000,20,-1.1322486,0.6072451,0.11068992,0.0749
14,0,191500,20,-1.1813722,0.5815268,-0.04848238,0.0821
14,0,192000,20,-0.9754723,0.33525735,-0.01733319,0.089
14,0,192500,21,-0.9779046,0.40202054,-0.053051446,0.0955
14,0,193000,21,-0.9801319,-0.7691483,-2.5996594,0.1013
14,0,193500,21,-1.011316,-0.058605544,-3.1399944,0.1065
14,0,194000,21,-1.0301007,0.68232256,-1.5357008,0.1109
14,0,194500,21,-1.0575339,-1.1517547,0.65248424,0.1147
14,0,195000,21,-0.67573255,-3.310389,-0.25104037,0.1175
14,0,195500,21,-0.83010805,-4.2555075,-2.4339094,0.1196
14,0,196000,21,-1.0928129,-5.4547496,-2.151416,0.121
14,0,196500,21,-1.1098621,-0.123803645,-1.2192891,0.1212
14,0,197000,22,-1.0268211,0.6908295,0.4520742,0.1204
14,0,197500,22,-0.82981944,0.4915316,1.413556,0.1183
14,0,198000,22,-0.6681268,0.89399546,1.6551903,0.1149
14,0,198500,22,-0.7218098,0.95850736,1.4184473,0.1107
14,0,199000,22,-0.8196876,0.16467632,0.27170205,0.1053
14,0,199500,22,-0.91386294,1.7561078,0.11166922,0.0991
14,0,200000,22,-0.6562812,2.0461106,0.12222989,0.0919
14,0,200500,22,-0.43114513,2.0591905,-0.28686076,0.0839
14,0,201000,22,-0.37021604,-0.62596816,-1.3803222,0.0749
14,0,201500,22,-0.38787684,-2.236143,-1.9285722,0.0654
14,0,202000,22,-0.44587234,-0.14814954,-0.3433,0.0554
14,0,202500,22,-0.3103811,1.0485543,1.9744173,0.0451
14,0,203000,22,0.031194415,0.8667121,1.6917207,0.0345
14,0,203500,22,0.17776136,1.1627825,1.1815647,0.0237
14,0,204000,23,0.30276215,-2.0902886,1.4044193,0.0131
14,0,204500,23,0.36864233,-1.9531856,1.1988412,0.0025
14,0,205000,23,0.06827422,0.45431718,0.85668945,-0.0078
14,0,205500,23,-0.09244528,0.36150673,0.74618626,-0.0175
14,0,206000,23,-0.16738003,-1.2688124,0.45289767,-0.0267
14,0,206500,23,-0.69909227,-0.34311873,0.07455031,-0.0351
14,0,207000,23,-0.69572115,1.4801251,-0.19229384,-0.0428
14,0,207500,23,-0.70390266,0.98649573,0.26796085,-0.0499
14,0,208000,23,-0.7524665,0.9925164,1.1109577,-0.0563
14,0,208500,23,-0.11485908,1.4854736,0.73895127,-0.062
14,0,209000,23,-0.43709582,1.860875,-0.15829372,-0.0676
14,0,209500,23,-1.088442,1.5825658,-0.41404903,-0.073
14,0,210000,23,-1.1269336,-1.9815453,-0.5947976,-0.0783
14,0,210500,24,-1.0892143,-3.0724666,-0.5637552,-0.0835
14,0,211000,24,-0.9185965,-0.9349588,-0.4408121,-0.0889
14,0,211500,24,-0.9081262,0.5750032,-0.45353097,-0.0945
14,0,212000,24,-0.8568639,0.13216187,-0.3342357,-0.1001
14,0,212500,24,-0.7366097,-0.8070254,-0.3332669,-0.1059
14,0,213000,24,-0.494077,-0.62892914,-0.27675268,-0.112
14,0,213500,24,-0.5477466,0.34035683,-0.26685002,-0.1184
14,0,214000,24,-0.5784646,0.8674077,-0.17235342,-0.1251
14,0,214500,24,-0.44531763,-0.89233,-2.1164713,-0.132
14,0,215000,24,-0.60164046,-1.5053105,-2.5520213,-0.1387
14,0,215500,24,-0.55862206,1.2409855,-2.1414165,-0.1451
14,0,216000,24,-0.38666874,1.5532098,-1.3959635,-0.1512
14,0,216500,24,-0.12392777,2.0176005,-1.4735535,-0.1566
14,0,217000,24,0.09726596,1.0696994,-1.3452153,-0.1612
14,0,217500,24,-0.02886821,0.5532423,-1.6355315,-0.1651
14,0,218000,24,-0.19584191,0.22193146,0.9726223,-0.1683
14,0,218500,24,-0.32496667,0.39604685,0.14581114,-0.1705
14,0,219000,24,-0.2723971,0.03559142,-1.0724683,-0.1716
14,0,219500,24,-0.20921852,0.114480555,0.04084696,-0.1715
14,0,220000,24,-0.33087587,-0.27904862,1.1381813,-0.1702
14,0,220500,24,-0.3742152,-0.6411632,-1.8318878,-0.1676
14,0,221000,24,-0.2859405,-0.03401056,-0.10410253,-0.1636
14,0,221500,25,-0.29892564,-0.015666543,2.6835895,-0.1584
14,0,222000,25,-0.08605264,0.17814647,2.0915186,-0.1519
14,0,222500,25,0.15332153,-0.47310135,1.6822966,-0.1443
14,0,223000,25,0.15040818,-3.1633313,1.6368846,-0.1359
14,0,223500,25,-0.025823882,-1.567073,1.2195861,-0.1265
14,0,224000,25,-0.31860775,-0.25492835,0.797741,-0.1164
14,0,224500,25,-0.24866869,-0.77800304,0.9551616,-0.106
14,0,225000,25,-0.32531327,-0.16588256,1.0427935,-0.0949
14,0,225500,25,-0.38142136,0.2779975,0.87390673,-0.0829
14,0,226000,25,-0.33810905,0.8400585,0.6209834,-0.0705
14,0,226500,25,-0.47172022,1.3223749,-0.30991152,-0.0579
14,0,227000,25,-0.44656637,1.6109302,-0.59312934,-0.0451
14,0,227500,25,-0.22494048,1.7988822,1.4839946,-0.0323
14,0,228000,25,0.08240397,0.14362982,1.2298847,-0.0196
14,0,228500,25,0.05050355,-0.6309783,0.85824096,-0.0073
14,0,229000,25,-0.24346724,-0.7615578,0.5326938,0.0044
14,0,229500,25,-0.5269391,-0.5463552,0.40024632,0.0154
14,0,230000,26,-1.0441186,0.015390914,0.33038878,0.0256
14,0,230500,26,-0.99395305,1.2989455,0.25428224,0.0352
14,0,231000,26,-1.00798,0.08095091,0.0063910484,0.044
14,0,231500,26,-1.1401781,-1.3420804,-0.05974747,0.0519
14,0,232000,26,-1.0155517,-0.922471,-0.15786418,0.0595
14,0,232500,26,-0.7818825,-0.9600802,-0.10941219,0.0661
14,0,233000,26,-0.3917263,-0.31445357,-0.72464913,0.0719
14,0,233500,26,-0.07703491,-0.23076575,-0.69737077,0.0769
14,0,234000,26,-0.27561796,-1.182549,-1.6073542,0.0811
14,0,234500,26,-0.4370886,-0.6350626,-2.7194135,0.0848
14,0,235000,27,-0.6048411,0.63788426,-0.41746372,0.0881
14,0,235500,27,-0.637951,-0.8997701,1.8380699,0.0909
14,0,236000,27,-0.28621328,-0.45677832,1.3343146,0.0935
14,0,236500,27,-0.22763465,0.4974536,1.0042698,0.0963
14,0,237000,27,-0.32512817,0.740748,0.8021075,0.0993
14,0,237500,27,-0.9178274,1.5298226,0.5596678,0.1027
14,0,238000,27,-1.0308574,1.2753611,0.40912506,0.1065
14,0,238500,27,-1.114504,0.90070236,0.17399123,0.1107
14,0,239000,27,-1.0003036,0.92193216,-0.15237682,0.1157
14,0,239500,27,-0.92958117,0.49994457,-0.3027247,0.1213
14,0,240000,27,-0.83989656,0.029721148,-0.7967594,0.1275
14,0,240500,27,-0.62996864,-1.0010405,-0.67794245,0.1343
14,0,241000,27,-0.4429591,-1.8301637,-0.30611283,0.1415
14,0,241500,28,-0.24077645,-0.17470442,-2.2624128,0.1493
14,0,242000,28,-0.086131096,1.721563,-0.44592482,0.1573
14,0,242500,28,-0.3445697,0.8272652,-1.4341948,0.1655
14,0,243000,28,-0.50116444,0.405052,-2.1293726,0.1739
14,0,243500,28,-0.6065702,-2.0620184,-1.9512506,0.1823
14,0,244000,28,-0.6718405,-1.631115,1.5155896,0.1906
14,0,244500,29,-0.2530929,-0.9602212,1.4388067,0.1986
14,0,245000,29,-0.13663255,-0.5619967,0.93565273,0.2061
14,0,245500,29,-0.14351559,-0.481425,0.74060434,0.2131
14,0,246000,29,-0.207028,-0.3724795,0.4622284,0.2197
14,0,246500,29,-0.71526086,0.81685,0.7510305,0.2257
14,0,247000,29,-0.42496148,0.37223208,1.544766,0.2312
14,0,247500,29,-0.31206727,-1.8019779,1.0856128,0.2359
14,0,248000,30,-0.31206727,-1.2870483,0.63895005,0.2399
14,0,248500,30,-0.7193426,-0.5954183,0.2789236,0.2431
14,0,249000,30,-0.737387,1.2447971,0.01821144,0.2457
14,0,249500,30,-0.7521529,-0.40969393,-0.05735205,0.2478
14,0,250000,30,-0.82981944,-0.45002446,0.039284058,0.2491
14,0,250500,30,-0.62207144,1.0066916,0.056297682,0.2499
14,0,251000,30,-0.5405494,0.8705097,0.0782781,0.2499
14,0,251500,30,-0.5597795,1.7274332,0.10331808,0.2491
14,0,252000,30,-0.2923243,2.7616823,-0.00022327015,0.2474
14,0,252500,30,-0.31587747,1.2232195,-0.13435967,0.2446
14,0,253000,30,-0.29630005,-0.14629774,-1.380531,0.2407
14,0,253500,30,-0.25900868,-0.2846792,-2.2291558,0.2354
14,0,254000,30,-0.25900868,0.59880394,-0.48395005,0.2287
14,0,254500,30,0.037504032,1.1961946,-2.2230504,0.2205
14,0,255000,30,0.27363622,2.2169125,-2.107742,0.2109
14,0,255500,30,0.21013239,-0.38665932,-2.016631,0.1998
14,0,256000,30,0.073817186,-2.5342393,1.0834175,0.1869
14,0,256500,30,-0.049328968,-0.44671565,-1.4040234,0.1723
14,0,257000,30,-0.14881656,0.67826647,-1.2595994,0.1556
14,0,257500,30,-0.32715175,1.8136966,2.3421252,0.1371
14,0,258000,30,0.10879502,2.4197824,2.0676637,0.1166
14,0,258500,30,0.08346016,2.1447866,1.5186287,0.0945
14,0,259000,30,-0.15737224,-0.40760714,1.0083294,0.0709
14,0,259500,30,-0.49990174,-1.4886539,0.6390875,0.0463
14,0,260000,30,-0.7229871,-0.5982994,0.3777681,0.0216
14,0,260500,30,-0.8465689,-0.21581042,0.58213234,-0.0035
14,0,261000,30,-0.9089414,0.083963595,0.3586608,-0.029
14,0,261500,30,-0.6679057,0.4131454,0.30226034,-0.0545
14,0,262000,30,-0.57292867,0.25856778,0.16914262,-0.0799
14,0,262500,30,-0.5110441,-0.23769352,0.15723294,-0.105
14,0,263000,30,-0.2657133,0.6480268,0.123843275,-0.1295
14,0,263500,30,-0.34381717,-1.9885999,-0.17871737,-0.1525
14,0,264000,30,-0.33467016,-3.0779185,0.025416953,-0.1738
14,0,264500,30,-0.2921932,-1.8327816,-0.32091078,-0.1932
14,0,265000,31,-0.24553643,-0.84201676,-1.8173867,-0.2103
14,0,265500,31,-0.27684757,0.40037555,-2.060977,-0.225
14,0,266000,31,-0.2147,-0.16281347,1.0802065,-0.2373
14,0,266500,31,0.045304608,-0.36530733,1.3199552,-0.2475
14,0,267000,31,0.21644689,0.0070202528,0.732161,-0.2551
14,0,267500,31,0.12360276,0.34991658,0.07771638,-0.261
14,0,268000,31,-0.08431795,1.0651499,0.38767862,-0.2646
14,0,268500,31,-0.4704407,1.3377768,0.27002826,-0.2657
14,0,269000,31,-0.6285347,0.17143959,0.062000405,-0.2645
14,0,269500,31,-0.6553042,-0.51436716,-0.19066411,-0.2609
14,0,270000,31,-0.8563269,-0.26548448,-0.2811227,-0.2553
14,0,270500,31,-0.92462474,0.25389132,-0.510686,-0.248
14,0,271000,31,-0.9801319,-0.19747111,-0.11212131,-0.2396
14,0,271500,31,-0.8313191,-0.20536236,-0.8235488,-0.2303
14,0,272000,31,-0.8117498,-0.27124667,-2.0536182,-0.2203
14,0,272500,31,-0.8499194,-0.19024254,-1.8274391,-0.2101
14,0,273000,31,-0.6516879,-0.9598828,-1.8702589,-0.1998
14,0,273500,31,-0.53683865,-0.8358034,-1.6060576,-0.1895
14,0,274000,31,-0.41886282,-0.7030431,2.2282486,-0.1794
14,0,274500,31,-0.26687407,-0.79696274,2.6506553,-0.1698
14,0,275000,31,0.073766865,-0.70126647,1.8663565,-0.1609
14,0,275500,31,-0.08931761,-0.17367041,1.2443217,-0.1529
14,0,276000,31,-0.32768577,-0.06489412,0.87019384,-0.1462
14,0,276500,31,-1.2230645,-0.16672385,0.5896127,-0.1407
14,0,277000,31,-1.2119572,0.14770001,0.52316,-0.1364
14,0,277500,31,-1.2027215,-1.5392069,0.65926284,-0.1331
14,0,278000,31,-1.1643494,-0.18538275,0.7729566,-0.1309
14,0,278500,31,-1.09773,0.33359826,0.51869625,-0.1295
14,0,279000,31,-0.99403846,0.77387345,-0.1840492,-0.1293
14,0,279500,31,-0.97041655,1.6013234,0.020165358,-0.13
14,0,280000,31,-0.8909593,0.8820622,-1.7638876,-0.1316
14,0,280500,31,-0.7660817,0.52970016,-1.8076378,-0.1341
14,0,281000,31,-0.51183563,-0.27502075,-2.1621704,-0.1375
14,0,281500,31,-0.38136572,0.6852741,-2.7800555,-0.1415
14,0,282000,31,-0.14417782,0.9545923,-2.4088757,-0.146
14,0,282500,31,-0.01561666,-1.0821433,-1.1428602,-0.1509
14,0,283000,32,-0.099183336,-1.0037007,1.3443576,-0.1559
14,0,283500,32,0.14498596,-0.51614845,-1.7480477,-0.161
14,0,284000,32,-0.18315826,0.11761545,-1.6504471,-0.1663
14,0,284500,32,-0.22558555,0.98448884,0.8240906,-0.1715
14,0,285000,32,-0.07718136,0.679136,2.562431,-0.1769
14,0,285500,32,0.1211373,0.59235084,1.7870355,-0.1824
14,0,286000,32,0.08940651,0.41480917,1.2661895,-0.1879
14,0,286500,32,-0.12389013,-0.18475297,1.1000632,-0.1933
14,0,287000,32,-0.32477647,-0.3707123,0.9523025,-0.1981
14,0,287500,32,-0.42308754,-0.68920636,0.6792038,-0.2028
14,0,288000,32,-0.37021604,-0.49947292,0.08858899,-0.2073
14,0,288500,32,-0.67929935,0.46581805,1.6990794,-0.2114
14,0,289000,32,-0.21687146,-0.16899393,1.6093701,-0.2152
14,0,289500,32,-0.10401332,0.29193765,1.1784039,-0.2187
14,0,290000,33,-0.42058447,0.5592301,0.8596151,-0.2221
14,0,290500,33,-0.9774738,-0.11446949,0.66151524,-0.2252
14,0,291000,33,-1.2826422,-0.7225997,0.45110512,-0.2281
14,0,291500,33,-1.2192701,-1.2721399,0.03292536,-0.2307
14,0,292000,33,-1.1852974,-1.2291821,-0.141091,-0.2331
14,0,292500,33,-1.1316626,-1.9822267,-0.2481343,-0.2351
14,0,293000,33,-0.96412593,-0.09739917,-0.1655112,-0.2368
14,0,293500,33,-0.95299053,0.6273375,-0.14446163,-0.2383
14,0,294000,33,-0.9847795,0.43611887,-0.39987904,-0.2393
14,0,294500,33,-0.79135716,0.44264716,-0.6131106,-0.2405
14,0,295000,33,-0.8403366,0.11619605,-3.4716737,-0.2413
14,0,295500,33,-1.0032496,0.33366406,0.28095925,-0.2415
14,0,296000,33,-0.8475891,1.6837939,0.8987591,-0.2412
14,0,296500,33,-0.6089145,1.8938218,1.0538576,-0.2405
14,0,297000,34,-0.41435468,0.18458073,0.374649,-0.2393
14,0,297500,34,-0.9572884,-1.0438479,-0.08682599,-0.2377
14,0,298000,34,-1.0189247,-1.2131035,-0.75778526,-0.2358
14,0,298500,34,-1.101522,-1.284092,-0.44598228,-0.2337
14,0,299000,34,-1.2152703,-0.21186244,-0.1364134,-0.2315
14,0,299500,34,-1.2452761,0.068886064,-0.16363782,-0.2292
14,0,300000,34,-1.1359257,-0.2878376,-0.545926,-0.2271
14,0,300500,34,-1.1316403,0.24875894,-2.3067582,-0.2249
14,0,301000,34,-1.127389,-0.29193598,-0.5544811,-0.2227
14,0,301500,34,-0.9202668,-0.18099768,-0.38006496,-0.2205
14,0,302000,34,-0.88398325,0.21897988,-2.8704765,-0.2185
14,0,302500,34,-0.8229608,0.29113865,0.16697481,-0.2164
14,0,303000,34,-0.6048411,-0.046150602,2.573039,-0.2147
14,0,303500,34,-0.2274218,-0.8698594,2.0467768,-0.2134
14,0,304000,35,-0.06499812,-0.49037847,0.73818004,-0.2127
14,0,304500,35,-0.15733293,-0.25996202,0.16730689,-0.2124
14,0,305000,35,-0.59344965,-0.37036452,0.46544087,-0.2128
14,0,305500,35,-0.9507931,0.20203176,0.43620563,-0.2137
14,0,306000,35,-1.1570239,0.20223856,0.20998612,-0.2147
14,0,306500,35,-1.1528723,0.11454166,-0.6995245,-0.2161
14,0,307000,35,-1.1231453,0.17832036,-0.8479926,-0.2178
14,0,307500,35,-1.08406,-0.6840035,-0.31593582,-0.2198
14,0,308000,35,-0.8259184,-0.12214455,-0.6577934,-0.2223
14,0,308500,35,-0.8885293,0.26945764,-0.3661789,-0.2253
14,0,309000,35,-0.99403846,0.08669899,-2.5319078,-0.2288
14,0,309500,35,-0.7386515,0.8483164,-1.8280159,-0.2329
14,0,310000,35,-0.5933394,0.5540648,-2.1439805,-0.2378
14,0,310500,35,-0.37000623,0.13382097,-1.9337269,-0.2433
14,0,311000,35,-0.114089355,0.49832308,-1.7591826,-0.2291
14,0,311500,35,-0.0028803202,0.028579053,1.2360476,-0.2147
14,0,312000,35,0.1426201,-0.86334527,2.8307955,-0.2001
14,0,312500,35,0.3021989,-0.35703537,2.1718729,-0.1853
14,0,313000,35,0.2399303,-0.21238884,1.3370996,-0.1702
14,0,313500,35,-0.040398408,-0.032431364,0.9949931,-0.1551
14,0,314000,35,-0.5413659,-0.16960493,0.6078963,-0.1397
19,0,500,1,-0.8954584,0.15299688,0.016481042,0.0564
19,0,1000,1,-0.84491473,-0.44756636,0.01188163,0.0706
19,0,1500,1,-0.93363446,0.18590613,0.002700313,0.0853
19,0,2000,1,-0.9800297,0.1910197,0.012188316,0.1004
19,0,2500,1,-1.0530735,-0.6623272,0.0066851866,0.1158
19,0,3000,1,-1.0733043,-0.23879331,0.0047604484,0.1315
19,0,3500,2,-1.0749123,0.1511028,0.005911031,0.1476
19,0,4000,2,-0.88947695,-0.5324386,0.007262083,0.1637
19,0,4500,2,-0.80778944,0.4128916,0.0076046605,0.1893
19,0,5000,2,-0.7648158,0.55242926,0.0028374607,0.2043
19,0,5500,2,-0.8043864,-0.33546716,0.0046822447,0.2149
19,0,6000,2,-0.94651973,0.27261132,0.009560038,0.2231
19,0,6500,2,-1.0486017,-0.41853458,0.011042694,0.2306
19,0,7000,2,-1.3128238,0.1495283,0.008633853,0.2363
19,0,7500,2,-1.3475875,0.3412686,0.0118401935,0.2415
19,0,8000,2,-1.3097239,-0.16575564,0.008797263,0.2464
19,0,8500,2,-1.3097239,0.7900037,0.008698634,0.251
19,0,9000,2,-1.3097239,0.18277124,0.011296855,0.2549
19,0,9500,2,-1.245908,0.36211303,0.0072072237,0.2583
19,0,10000,2,-1.208447,0.45770118,0.007038561,0.2613
19,0,10500,2,-1.1231047,-0.23663603,0.006531114,0.2636
19,0,11000,2,-1.0959126,0.18545963,0.0094444845,0.2655
19,0,11500,2,-1.0475022,0.1291398,0.0075425063,0.2673
19,0,12000,2,-0.8499194,-0.6314671,0.008033904,0.2685
19,0,12500,3,-0.93552613,-0.21148174,-0.010670433,0.2693
19,0,13000,3,-0.9792909,0.28428137,-0.0052399626,0.2694
19,0,13500,3,-0.8549106,-0.4597017,0.0013527626,0.2685
19,0,14000,3,-0.8610152,0.40161163,0.00401985,0.2665
19,0,14500,3,-0.8648529,-0.07157748,0.0069165872,0.2632
19,0,15000,3,-1.2310479,0.19967707,0.0054231347,0.2587
19,0,15500,3,-1.2872483,0.4079049,0.0043910244,0.2531
19,0,16000,3,-1.5247236,-0.48209238,0.005192318,0.2463
19,0,16500,4,-1.5236583,0.24779074,0.0014017856,0.2387
19,0,17000,4,-1.5213734,-0.41907978,-0.0029475512,0.2302
19,0,17500,4,-1.4536059,0.3488356,-0.023134835,0.2209
19,0,18000,4,-1.4028987,-0.21201754,-0.015960837,0.2109
19,0,18500,4,-1.3556018,-0.23859121,-0.0026928063,0.2001
19,0,19000,4,-1.337918,-1.2364954,0.00097312575,0.1886
19,0,19500,4,-1.2904258,-1.7569709,0.0027898967,0.1763
19,0,20000,4,-1.264384,-0.9000662,0.0033851766,0.1631
19,0,20500,5,-1.2391624,-1.2738601,0.0035042325,0.1493
19,0,21000,5,-1.2750767,-1.0971692,0.0076300474,0.1352
19,0,21500,5,-1.286217,-0.6169959,0.008214823,0.121
19,0,22000,5,-1.3097239,-1.3001847,0.004721347,0.1068
19,0,22500,5,-1.3028773,-1.406,-0.0041057207,0.0934
19,0,23000,5,-1.2943037,-2.1661603,0.00013039615,0.0803
19,0,23500,5,-0.93514603,-1.2280871,0.00248467,0.0679
19,0,24000,5,-0.930038,-0.8173183,0.0038231742,0.0564
19,0,24500,6,-0.9614204,-1.3776639,0.008604964,0.0459
19,0,25000,6,-1.1984333,-2.1218772,0.010935893,0.0365
19,0,25500,6,-1.2943965,-1.662962,0.004766868,0.0281
19,0,26000,6,-1.2981724,-2.8783576,0.007980796,0.0207
19,0,26500,6,-1.2981724,-2.676263,0.012710645,0.0143
19,0,27000,6,-1.2981724,-2.915948,0.007503113,0.0089
19,0,27500,6,-1.255571,-3.4281986,0.0034627963,0.0046
19,0,28000,6,-1.2346275,-2.7976542,0.009972357,0.0011
19,0,28500,6,-1.214957,-3.5558124,0.0005345445,-0.0019
19,0,29000,6,-1.2209744,-2.515176,-0.004484774,-0.0044
19,0,29500,6,-1.231133,-2.1069078,-0.0052843164,-0.0065
19,0,30000,7,-0.98176116,-0.9542898,-0.005313497,-0.0089
19,0,30500,7,-0.95089144,-1.5049345,-0.0012057738,-0.0109
19,0,31000,7,-0.9801319,-3.2378542,0.0034913933,-0.0131
19,0,31500,7,-1.0402106,-1.6460185,-0.0009387733,-0.0155
19,0,32000,7,-1.0723753,-1.3013033,0.0019775147,-0.0181
19,0,32500,7,-1.2981724,-3.154721,0.005696847,-0.0214
19,0,33000,8,-1.3514161,-2.9623697,0.004279264,-0.025
19,0,33500,8,-1.5446712,-3.1435068,0.00648997,-0.0291
19,0,34000,8,-1.5566938,-0.51008075,-0.00029330308,-0.0336
19,0,34500,8,-1.5773412,-1.5845522,0.004799258,-0.0386
19,0,35000,8,-1.618092,-2.025913,0.009436897,-0.0441
19,0,35500,8,-1.6651661,-3.500818,0.013603857,-0.0497
19,0,36000,8,-1.6417334,-2.611159,0.015690254,-0.0553
19,0,36500,8,-1.6250416,-3.7560222,0.012255431,-0.0609
19,0,37000,8,-1.6114365,-2.1201665,0.007927979,-0.0664
19,0,37500,8,-1.5305841,2.61172,0.009729285,-0.0719
19,0,38000,8,-1.0664207,1.0813318,0.011949037,-0.0773
19,0,38500,8,-1.073812,0.91624045,0.012193277,-0.0827
19,0,39000,8,-1.0796669,0.98705035,0.008144206,-0.0876
19,0,39500,8,-1.277976,1.735475,0.008024567,-0.0925
19,0,40000,8,-1.3188506,-0.49960452,0.0049212324,-0.0973
19,0,40500,8,-1.3810267,-3.2973182,0.007916016,-0.1022
19,0,41000,8,-1.3780982,-2.997521,0.001279228,-0.1075
19,0,41500,9,-1.3736687,-3.3922298,-0.002885105,-0.1129
19,0,42000,9,-1.3143997,-1.7524449,0.0025582043,-0.1187
19,0,42500,9,-1.2439032,-0.90594584,0.003265537,-0.1247
19,0,43000,9,-1.0032496,-2.241393,0.0049013896,-0.1311
19,0,43500,9,-1.0249288,1.661596,0.0043180734,-0.1378
19,0,44000,9,-1.0396241,12.024132,0.0045728185,-0.1451
19,0,44500,9,-1.1991193,7.781353,0.00810919,-0.1529
19,0,45000,9,-1.191786,1.478762,-0.00022472917,-0.1605
19,0,45500,9,-1.161283,-2.0772228,0.0047201794,-0.1686
19,0,46000,10,-0.95981175,-2.7078564,0.006676724,-0.1771
19,0,46500,10,-0.91949946,-2.1152785,0.010939979,-0.1864
19,0,47000,10,-0.9329838,-2.1439953,0.010683192,-0.1961
19,0,47500,10,-1.0377154,-1.3794546,0.009545448,-0.206
19,0,48000,10,-1.0869439,-0.86016804,0.009536111,-0.216
19,0,48500,10,-1.1570828,-1.3626145,0.00947133,-0.226
19,0,49000,10,-1.1723404,-0.11933867,0.0038835777,-0.236
19,0,49500,10,-1.1903963,1.2981936,0.009006779,-0.2458
19,0,50000,10,-1.1056939,3.0907795,0.006709698,-0.2548
19,0,50500,10,-1.0940163,2.3381484,0.00393085,-0.2637
19,0,51000,11,-1.097173,0.20799133,0.010547211,-0.2724
19,0,51500,11,-1.0725399,-0.13170432,0.009921875,-0.2808
19,0,52000,11,-1.0699505,-0.18603136,0.0010402406,-0.2891
19,0,52500,11,-1.1696522,-0.7931464,-0.005234418,-0.298
19,0,53000,11,-1.0132877,0.41944805,0.0010656276,-0.3066
19,0,53500,11,-0.8961221,0.79609025,0.004364762,-0.3152
19,0,54000,11,-0.92820066,-0.30441442,0.0075121587,-0.3237
19,0,54500,11,-1.0372741,7.8729606,0.0080304025,-0.3321
19,0,55000,11,-1.1903963,8.999912,0.0057960604,-0.3402
19,0,55500,11,-1.3571119,3.4007807,0.006967361,-0.3481
19,0,56000,11,-1.4192902,2.2952094,0.0061929133,-0.3559
19,0,56500,11,-1.0441186,1.7068003,0.0056221453,-0.3636
19,0,57000,11,-1.1144012,0.952717,0.0048001334,-0.3711
19,0,57500,11,-1.2068099,-1.260202,0.004623884,-0.3788
19,0,58000,12,-1.3574178,-1.9557847,0.0037516824,-0.3861
19,0,58500,12,-1.4315977,-2.7870135,0.0037049938,-0.3929
19,0,59000,12,-1.3877888,-1.9136494,0.0004583837,-0.3993
19,0,59500,12,-1.3748004,-1.0507333,0.0005503019,-0.4052
19,0,60000,12,-1.3401319,-1.2074777,0.005990402,-0.4105
19,0,60500,12,-1.3401319,-0.60338944,-0.0022714415,-0.4151
19,0,61000,12,-1.3401319,-0.42388785,-0.0040852944,-0.4191
19,0,61500,13,-0.9425829,-1.095792,0.0060823197,-0.4224
19,0,62000,13,-0.90929145,-0.59801733,0.0049746325,-0.4251
19,0,62500,13,-0.8796668,-0.7566369,0.010374755,-0.4277
19,0,63000,13,-1.042593,3.759281,0.002805946,-0.4297
19,0,63500,13,-1.0989397,6.5128336,-0.008656986,-0.4313
19,0,64000,13,-1.2108884,2.7069323,0.0002938063,-0.4325
19,0,64500,13,-1.2134191,0.80827725,0.0028395033,-0.4333
19,0,65000,13,-1.214957,-0.7268532,0.0056478237,-0.4338
19,0,65500,14,-1.2228214,-1.5530812,0.009427268,-0.4343
19,0,66000,14,-1.2121533,-1.75675,0.0040802537,-0.4347
19,0,66500,14,-1.1903963,-2.0067983,0.009167271,-0.435
19,0,67000,14,-1.1666771,-1.2609681,0.0033332356,-0.4353
19,0,67500,14,-1.1601568,-0.5703674,0.0045979135,-0.4359
19,0,68000,14,-1.1986232,0.76848257,0.00032736376,-0.4365
19,0,68500,14,-1.0120677,2.5300956,0.008726355,-0.4374
19,0,69000,14,-0.87550926,1.9643732,0.0030907465,-0.4385
19,0,69500,14,-0.8845784,3.6158516,0.0076455134,-0.4397
19,0,70000,14,-1.0287735,7.765392,0.0059892344,-0.4411
19,0,70500,14,-1.2230645,4.047704,0.0059416704,-0.4427
19,0,71000,14,-1.3949946,2.7010384,-4.1254375e-06,-0.4446
19,0,71500,14,-1.4977133,-0.048773192,0.0063551567,-0.4467
19,0,72000,14,-1.4469544,-1.592561,0.0056627057,-0.4491
19,0,72500,15,-1.4404206,-2.434661,0.0048867995,-0.4518
19,0,73000,15,-1.4597803,-3.560428,0.0052766493,-0.4545
19,0,73500,15,-1.4554037,-2.6617308,0.001977223,-0.4575
19,0,74000,15,-1.4457527,-2.0592546,0.0012515066,-0.4606
19,0,74500,15,-1.3798995,-0.8217927,0.005655119,-0.4635
19,0,75000,15,-1.336362,-1.3936814,-0.008486864,-0.4665
19,0,75500,15,-1.3811765,0.13040408,-0.0046403054,-0.4695
19,0,76000,15,-1.2592081,0.6739096,-0.0010989736,-0.4727
19,0,76500,15,-0.9847795,0.043647185,-0.011208519,-0.4759
19,0,77000,15,-1.1083319,-0.34451932,-0.0018386964,-0.4793
19,0,77500,15,-1.161283,-1.660156,0.0030224645,-0.4826
19,0,78000,15,-1.4734788,-1.3013833,-0.0014112038,-0.4859
19,0,78500,15,-1.5133651,-0.6327361,-0.0052860673,-0.4889
19,0,79000,16,-1.6156238,-1.2170233,0.003618328,-0.4916
19,0,79500,16,-1.6156238,0.0617844,0.008589207,-0.4939
19,0,80000,16,-1.6156238,-0.44347268,0.009877813,-0.4958
19,0,80500,16,-1.6295818,0.32056051,0.009565291,-0.4972
19,0,81000,16,-1.6742705,0.01185653,0.008499623,-0.4981
19,0,81500,16,-1.6165009,0.56961703,0.007931773,-0.4983
19,0,82000,17,-1.5347302,-0.04470301,0.002587093,-0.4982
19,0,82500,17,-1.1839145,-0.21589972,0.0028532182,-0.4974
19,0,83000,17,-1.0797862,-1.1106628,0.0043148636,-0.4959
19,0,83500,17,-1.0078375,0.76480716,0.010311433,-0.4935
19,0,84000,17,-1.1444943,4.46118,0.0087698335,-0.4909
19,0,84500,17,-1.231133,2.6195595,0.007998887,-0.4871
19,0,85000,17,-1.4808338,0.6891939,0.007604369,-0.4822
19,0,85500,17,-1.5512623,-0.7122973,0.005434807,-0.476
19,0,86000,18,-1.5449876,-0.68345356,0.0029360903,-0.4685
19,0,86500,18,-1.5231872,-0.4579909,0.0013977004,-0.4595
19,0,87000,18,-1.4315977,-0.9713742,-0.0019904345,-0.4488
19,0,87500,18,-1.4137789,-0.0025113034,0.0008642829,-0.4365
19,0,88000,18,-1.3920004,-0.35382998,0.0004274525,-0.4225
19,0,88500,18,-1.2781507,0.23816518,0.00014060929,-0.4069
19,0,89000,18,-1.2277998,0.6723022,0.0024703715,-0.3896
19,0,89500,18,-1.1359257,-0.4781397,-0.0015795745,-0.3717
19,0,90000,18,-1.1833382,1.0567416,-0.00653849,-0.3524
19,0,90500,19,-1.2271036,7.0164695,0.001142372,-0.3315
19,0,91000,19,-0.9377544,4.5806584,0.0071897157,-0.3093
19,0,91500,19,-1.0210992,2.4357529,0.0073189847,-0.2853
19,0,92000,19,-1.1570828,0.9352566,0.005207492,-0.2607
19,0,92500,19,-1.4047383,0.8829881,0.0054234266,-0.2357
19,0,93000,19,-1.7277176,-1.0925537,0.006751426,-0.2103
19,0,93500,19,-1.7424897,-1.2799466,0.007212768,-0.1851
19,0,94000,19,-1.7594173,-2.2456794,0.007755815,-0.1601
19,0,94500,19,-1.7263985,-1.6920455,0.00803478,-0.1358
19,0,95000,19,-1.6982715,-2.4519098,0.008749115,-0.1126
19,0,95500,19,-1.5498585,-1.8347603,0.0065862653,-0.0905
19,0,96000,19,-1.4977133,-1.8555765,0.0048479894,-0.0696
19,0,96500,20,-1.4880139,-1.0330896,0.0012520902,-0.05
19,0,97000,20,-1.4185684,-0.5919873,-0.00035720813,-0.0311
19,0,97500,20,-1.2431628,-1.5339005,0.0021187477,-0.014
19,0,98000,20,-1.1802182,-0.8229677,0.004821435,0.0011
19,0,98500,20,-1.1486514,1.6713343,0.0071120956,0.0139
19,0,99000,20,-1.36569,2.921566,0.0076691494,0.0249
19,0,99500,20,-1.3982415,0.9933107,-0.0035308672,0.0339
19,0,100000,20,-1.5347302,-1.1487185,-0.00404094,0.0411
19,0,100500,21,-1.4956988,-0.60338,0.003295301,0.0467
19,0,101000,21,-1.424472,-1.0796852,0.004238703,0.0508
19,0,101500,21,-1.1836015,-0.8554399,0.00220162,0.0538
19,0,102000,21,-1.1058602,-0.8669924,0.0014671497,0.0554
19,0,102500,21,-1.4388623,-0.98422396,0.0034954785,0.0559
19,0,103000,21,-1.4570105,2.216687,0.0032576583,0.0548
19,0,103500,21,-1.7160121,2.46149,0.0018108947,0.0523
19,0,104000,21,-1.7003652,1.1391228,0.004606376,0.0485
19,0,104500,21,-1.6250416,-0.90747803,0.005340263,0.0437
19,0,105000,21,-1.6520612,-0.6259775,0.003160196,0.0379
19,0,105500,21,-1.7537065,-1.2385868,0.0012220345,0.0311
19,0,106000,21,-1.752273,-0.38533393,-0.0005585528,0.0233
19,0,106500,22,-1.7479725,-0.85149187,-0.00014594212,0.0144
19,0,107000,22,-1.6870759,-0.12568833,0.00039214423,0.0045
19,0,107500,22,-1.5934125,-0.6323789,0.0040709157,-0.0062
19,0,108000,22,-1.4780514,-0.25335854,0.00560347,-0.018
19,0,108500,22,-1.4137223,-0.76993316,0.006684311,-0.0308
19,0,109000,22,-1.3908881,-0.5643232,0.007144486,-0.0451
19,0,109500,22,-1.3799928,0.52200156,0.005958595,-0.0599
19,0,110000,22,-1.343893,0.9357313,0.006620406,-0.0757
19,0,110500,22,-1.2999537,1.3474635,0.0021403413,-0.0922
19,0,111000,22,-1.259068,0.022309283,0.0011015194,-0.1093
19,0,111500,22,-1.0114359,-0.5421111,0.0020160328,-0.1271
19,0,112000,22,-1.0874364,-0.46935076,-0.0001509028,-0.1454
19,0,112500,22,-1.3173795,-1.2806704,-0.0003621688,-0.164
19,0,113000,22,-1.4221772,-0.41804108,0.000224357,-0.1826
19,0,113500,22,-1.5610951,-0.7431574,-0.0020557984,-0.2009
19,0,114000,22,-1.574213,0.112680465,0.0039938795,-0.2187
19,0,114500,22,-1.5837905,-0.25420925,0.004573694,-0.2359
19,0,115000,22,-1.519635,0.24675205,0.006328019,-0.2523
19,0,115500,23,-1.5000927,0.48109296,0.007096922,-0.2677
19,0,116000,23,-1.428039,-0.26010773,0.0068596853,-0.2819
19,0,116500,23,-1.411317,0.5135651,0.0075641,-0.2949
19,0,117000,23,-1.3699769,-0.92380106,0.0067394623,-0.3071
19,0,117500,23,-1.3915753,0.39740047,0.00059027906,-0.3181
19,0,118000,23,-1.4083467,6.441347,-0.0017727488,-0.3277
19,0,118500,24,-0.9661166,2.8941746,0.0014084971,-0.3359
19,0,119000,24,-0.9548338,0.6509173,0.0027213227,-0.3429
19,0,119500,24,-0.94251245,-0.9144058,0.0028467984,-0.3488
19,0,120000,24,-1.1725631,-0.8722047,0.0024163877,-0.3536
19,0,120500,24,-1.2310538,-0.8811958,0.0026661719,-0.3573
19,0,121000,24,-1.4597803,-1.8552804,0.0005453413,-0.3603
19,0,121500,24,-1.4660846,-0.8787706,-0.0010546194,-0.3627
19,0,122000,24,-1.4840273,-1.1149868,0.0010005553,-0.3647
19,0,122500,24,-1.3755053,-0.25398836,0.0022407218,-0.3665
19,0,123000,24,-1.2943037,-0.20940904,0.0028555526,-0.3684
19,0,123500,24,-1.2977082,0.368082,0.0028126575,-0.3705
19,0,124000,24,-1.2583998,0.405005,0.00074697775,-0.3728
19,0,124500,24,-1.1486514,0.10864788,0.0048433207,-0.3752
19,0,125000,24,-0.9996203,0.29646373,0.00526381,-0.3778
19,0,125500,25,-0.96534324,-0.08130174,0.0034193178,-0.3805
19,0,126000,25,-1.0575339,-1.3626897,0.0035485867,-0.3833
19,0,126500,25,-1.139079,0.33487195,0.003762479,-0.386
19,0,127000,25,-1.214957,1.5800043,0.006405055,-0.3887
19,0,127500,25,-1.2619468,3.1837404,0.0058853524,-0.3914
19,0,128000,25,-1.2760751,1.86816,0.001752534,-0.3941
19,0,128500,25,-1.3058825,-0.20069529,0.0021015313,-0.3966
19,0,129000,25,-1.3143703,-0.27009046,0.000901342,-0.3989
19,0,129500,25,-1.3249992,-1.3691428,0.0011925623,-0.4009
19,0,130000,25,-1.3077278,-0.88293475,0.0005272494,-0.4031
19,0,130500,25,-1.2200615,-0.5065605,0.0037070364,-0.4052
19,0,131000,25,-0.94251245,-0.93002856,0.0046650283,-0.4074
19,0,131500,25,-1.0575056,-0.16263017,0.0071634534,-0.4097
19,0,132000,25,-1.127389,-0.29427657,0.0075740214,-0.4123
19,0,132500,25,-1.4657114,0.19798037,0.006549206,-0.4152
19,0,133000,25,-1.5578246,-0.40018588,0.0059489654,-0.4187
19,0,133500,25,-1.6162697,0.1281011,0.0066306195,-0.4228
19,0,134000,25,-1.6163987,0.43620348,0.0042734277,-0.4277
19,0,134500,25,-1.5512623,-0.38598254,0.0032926747,-0.4331
19,0,135000,25,-1.5332701,0.036935616,-0.00030468343,-0.439
19,0,135500,25,-1.4874603,-1.3594656,-0.0013896102,-0.4455
19,0,136000,26,-1.4698439,0.56378436,-0.00016111592,-0.4525
19,0,136500,26,-1.4527824,1.0668795,0.00042249184,-0.4599
19,0,137000,26,-1.4395922,1.0954318,0.0033632913,-0.4677
19,0,137500,26,-1.4351486,-0.49755064,0.0046157134,-0.4753
19,0,138000,26,-1.5654457,-0.23689923,0.00904588,-0.4829
19,0,138500,26,-1.4082118,-0.38750532,0.010579893,-0.4899
19,0,139000,26,-1.0486017,-1.1217594,0.010388178,-0.4966
19,0,139500,26,-1.222322,0.61447364,0.0076242117,-0.5026
19,0,140000,26,-1.3287958,3.0148795,0.012173434,-0.5075
19,0,140500,26,-1.4931315,1.2265236,0.011890384,-0.5115
19,0,141000,26,-1.5347302,-0.5676038,-0.0014616858,-0.5139
19,0,141500,26,-1.5182498,-1.0176033,-0.002752918,-0.5151
19,0,142000,26,-1.3555832,-0.5464962,0.00056226586,-0.5151
19,0,142500,26,-1.101522,-1.1471205,0.00051557727,-0.5139
19,0,143000,26,-1.1537098,-0.6559634,0.0014820317,-0.5117
19,0,143500,26,-1.1213424,-0.5278138,-0.0012918559,-0.5087
19,0,144000,26,-0.9614204,-1.235748,0.0008196369,-0.5048
19,0,144500,26,-1.0079093,-1.5056255,-0.0002273554,-0.5001
19,0,145000,26,-1.0365157,-1.0229424,-0.0017146798,-0.4949
19,0,145500,26,-1.1862679,-0.8063392,-0.0048962175,-0.4893
19,0,146000,26,-1.1627876,0.20779863,-0.00035283106,-0.4837
19,0,146500,26,-1.1316626,-0.53543246,0.00068599073,-0.4779
19,0,147000,26,-1.0990288,-0.5253792,0.0025360272,-0.4722
19,0,147500,26,-1.0938942,-0.5881803,0.004494323,-0.467
19,0,148000,27,-1.097173,-1.2645541,0.004000591,-0.4622
19,0,148500,27,-1.0642416,-0.7974045,0.0006045775,-0.4581
19,0,149000,27,-1.0023612,-0.49002126,0.0034911013,-0.4547
19,0,149500,27,-0.8196876,-0.8335991,0.003661515,-0.4521
19,0,150000,27,-0.94236135,0.14454162,0.0018710063,-0.4502
19,0,150500,27,-1.0078375,-0.31134218,0.0025354438,-0.4491
19,0,151000,27,-1.4232793,0.13091639,0.0023265122,-0.4485
19,0,151500,27,-1.494105,0.39078757,0.0022917874,-0.4487
19,0,152000,27,-1.4908855,-0.6408483,0.0020323738,-0.4497
19,0,152500,28,-1.4890612,0.03535642,0.0016034221,-0.4513
19,0,153000,28,-1.4840273,-0.5776476,-0.00016345036,-0.4533
19,0,153500,28,-1.3846743,0.48200476,0.00091359776,-0.4559
19,0,154000,28,-1.3097239,-0.0023374043,0.0033075567,-0.4589
19,0,154500,28,-1.1157745,-0.57839024,0.0024108435,-0.4624
19,0,155000,28,-1.1418797,0.22568674,0.002168938,-0.4662
19,0,155500,28,-1.2068099,0.93347526,0.0030980415,-0.4702
19,0,156000,28,-1.3121167,1.6066955,0.0025809652,-0.4743
19,0,156500,28,-1.384693,0.28113708,0.0018231504,-0.4785
19,0,157000,28,-1.3210967,0.18579333,0.0028783132,-0.4831
19,0,157500,28,-1.2916572,-0.03350766,0.004042319,-0.4875
19,0,158000,29,-1.2230645,-0.52875847,0.0017011764,-0.4918
19,0,158500,29,-1.1161064,0.12334941,0.0028689755,-0.4959
19,0,159000,29,-1.0644954,0.041381795,0.004324785,-0.4998
19,0,159500,29,-1.2190156,-2.1270378,0.00472835,-0.5033
19,0,160000,29,-1.2437102,-0.21468712,0.004530215,-0.5063
19,0,160500,29,-1.2943037,0.9369439,0.003664433,-0.5089
19,0,161000,29,-1.3376313,2.5369105,0.00503737,-0.5109
19,0,161500,29,-1.3662765,2.131025,0.005430138,-0.5124
19,0,162000,29,-1.3395928,1.0166038,0.0058418736,-0.513
19,0,162500,30,-1.3470378,0.11183447,0.006762223,-0.5131
19,0,163000,30,-1.4137223,-0.8724115,0.0075322934,-0.5127
19,0,163500,30,-1.4507698,-0.56039876,0.008118819,-0.5118
19,0,164000,30,-1.5280665,-1.2000846,0.00491277,-0.5104
19,0,164500,30,-1.4290981,0.39592466,0.0034015176,-0.5083
19,0,165000,30,-1.3625675,0.62032515,0.004262631,-0.5059
19,0,165500,30,-1.1529297,0.18488623,0.0033449077,-0.5032
19,0,166000,30,-1.1794301,0.70750034,0.0042745946,-0.5004
19,0,166500,31,-1.6982715,-0.40545455,0.0042349095,-0.4976
19,0,167000,31,-1.7015105,0.20446634,0.0042722602,-0.4945
19,0,167500,31,-1.7277176,-0.8311692,0.00464431,-0.4915
19,0,168000,31,-1.702006,-0.35667816,0.001594668,-0.4884
19,0,168500,31,-1.6187699,-0.61494195,0.004027729,-0.4853
19,0,169000,31,-1.3282366,-0.13914907,0.002929379,-0.4824
19,0,169500,31,-1.1486514,-1.2356211,0.003252406,-0.4796
19,0,170000,31,-1.2743348,0.5820861,0.003980165,-0.4769
19,0,170500,32,-1.2729183,0.7392111,0.0032375238,-0.4741
19,0,171000,32,-1.2471534,-0.554082,0.0063055498,-0.4715
19,0,171500,32,-1.3341024,-0.57791555,0.00546603,-0.469
19,0,172000,32,-1.4137223,-1.1986041,0.007087584,-0.4666
