participant_id,sample_id,timestamp,segment_id,BPM,ECG,RESP,label
1,0,500,1,-1.3287958,-0.49151585,-0.0778396,0.037
1,0,1000,1,-1.3732919,0.13852094,-0.01769707,0.0523
1,0,1500,1,-1.3075414,-0.5305821,0.46647647,0.0703
1,0,2000,1,-0.9329838,0.108177885,0.4110781,0.0911
1,0,2500,1,-0.79158914,0.15915856,0.28912187,0.1147
1,0,3000,1,-0.73706263,-0.27373764,0.12487276,0.1411
1,0,3500,1,-0.72596496,-0.034654457,0.051912453,0.1702
1,0,4000,1,-0.69276476,-0.0682029,-0.152509,0.2019
1,0,4500,1,-0.75483805,-0.06362042,-0.15181655,0.238
1,0,5000,2,-0.8593326,-0.1773787,0.09219073,0.2748
1,0,5500,2,-0.5819924,-0.265743,0.29237926,0.3113
1,0,6000,2,-0.62835,0.09600964,0.2083313,0.3477
1,0,6500,2,-0.65679055,-0.49662474,0.14415196,0.3823
1,0,7000,2,-0.63862675,0.025274968,0.108479805,0.4158
1,0,7500,2,-0.750268,0.09248936,-0.10152444,0.4478
1,0,8000,2,-0.75359756,-0.2893369,-0.22557378,0.4778
1,0,8500,2,-0.66083187,-0.16236697,-0.20634682,0.5055
1,0,9000,2,-0.6202766,-0.056250855,-2.552173,0.5308
1,0,9500,2,-0.51175517,0.39293548,-1.0066198,0.5535
1,0,10000,2,-0.42851606,-0.44765565,-2.0835106,0.5734
1,0,10500,3,-0.41435468,0.032686833,-0.123644345,0.5905
1,0,11000,3,-0.36141655,0.07120786,0.97775364,0.6049
1,0,11500,3,-0.24645072,-0.07673806,0.7663385,0.6164
1,0,12000,3,-0.26635715,-0.07169028,0.6514991,0.6256
1,0,12500,3,-0.41435468,-0.4378938,0.5387093,0.6325
1,0,13000,3,-0.68151534,0.13519336,0.4685909,0.6371
1,0,13500,3,-0.82265663,0.11597045,0.2792942,0.6398
1,0,14000,3,-1.0396241,-0.002830902,0.098892584,0.6408
1,0,14500,3,-1.1772162,0.3477029,0.025326785,0.6407
1,0,15000,3,-1.240034,-0.24458839,-0.45382977,0.6395
1,0,15500,3,-1.1779804,-0.05823425,-0.77199113,0.6377
1,0,16000,4,-1.0666685,0.2153045,0.09173347,0.6356
1,0,16500,4,-0.9761213,-1.2190161,0.66997963,0.6331
1,0,17000,4,-0.69935447,0.31092086,0.6047959,0.6305
1,0,17500,4,-0.7146626,0.44640714,0.45604506,0.6279
1,0,18000,4,-0.70310444,-0.14283386,0.38842797,0.6253
1,0,18500,4,-0.6330359,0.053427838,0.09516129,0.6228
1,0,19000,4,-0.6235357,0.2355896,0.017413648,0.6206
1,0,19500,4,-0.57755,0.31362805,-0.12135398,0.6185
1,0,20000,4,-0.5227213,-0.4116162,-0.078778915,0.6167
1,0,20500,4,-0.47582182,0.18635732,-0.5139198,0.6153
1,0,21000,4,-0.42677104,-0.061011933,0.38246906,0.6143
1,0,21500,4,-0.3526073,-0.016028441,0.49449402,0.6133
1,0,22000,4,-0.31035194,-0.45275512,0.42667326,0.6125
1,0,22500,4,-0.38924706,0.020405792,0.33517757,0.6116
1,0,23000,4,-0.66044533,0.12284652,0.2500146,0.6107
1,0,23500,5,-0.78580755,-0.34278032,0.1605166,0.6097
1,0,24000,5,-0.87474203,-0.037530843,0.15269509,0.6085
1,0,24500,5,-0.9717468,0.21152571,-0.06641198,0.6073
1,0,25000,5,-0.96025467,-0.22464637,-0.014504444,0.6056
1,0,25500,5,-0.76819247,0.049536258,-0.6342737,0.6037
1,0,26000,5,-0.69458705,0.090637565,-1.2711766,0.6015
1,0,26500,5,-0.6640736,0.12069393,-0.9779081,0.5991
1,0,27000,5,-0.6438868,-0.028723083,-2.115989,0.5965
1,0,27500,5,-0.6048411,-0.32022983,-1.8438597,0.5937
1,0,28000,5,-0.5833928,-0.110187806,0.82642704,0.5909
1,0,28500,5,-0.5853272,-0.009175872,0.2669646,0.5881
1,0,29000,5,-0.63862675,0.4274286,0.051593803,0.5854
1,0,29500,5,-0.71072245,0.24231057,-0.31424394,0.5827
1,0,30000,5,-0.7219155,-0.11819657,-0.6330563,0.5802
1,0,30500,5,-0.70449686,-0.27819324,-1.835326,0.5777
1,0,31000,6,-0.64244723,-0.15736619,0.8819302,0.5753
1,0,31500,6,-0.58670795,-0.015506743,1.4174817,0.5729
1,0,32000,6,-0.52713954,-0.3690955,1.24191,0.5705
1,0,32500,6,-0.45757377,0.12278542,1.0148057,0.5683
1,0,33000,6,-0.6381949,0.3228494,0.74528426,0.5665
1,0,33500,6,-0.7359352,0.054607533,0.6054294,0.5649
1,0,34000,6,-0.8499194,0.05963181,0.33299896,0.5637
1,0,34500,7,-0.89749116,0.24748525,-0.0029548462,0.5628
1,0,35000,7,-0.8190729,-0.03617255,-0.31350684,0.5622
1,0,35500,7,-0.67732155,0.008167047,-0.4746494,0.5619
1,0,36000,7,-0.58790845,-0.0901471,-0.40318632,0.5619
1,0,36500,7,-0.5359279,0.15416248,-1.1591486,0.5623
1,0,37000,7,-0.38011533,-0.20623186,-2.7267818,0.5629
1,0,37500,7,-0.3275282,-0.2583123,-2.5737455,0.5635
1,0,38000,7,-0.27906013,0.26856464,-1.3736913,0.5644
1,0,38500,7,-0.3392497,0.09239066,-1.8909782,0.5657
1,0,39000,7,-0.38225028,0.11142087,-0.32049933,0.5671
1,0,39500,8,-0.42273706,-0.40446284,2.2000313,0.5685
1,0,40000,8,-0.5588783,-0.02688069,2.088344,0.5698
1,0,40500,8,-0.41376513,-0.08081764,1.7813994,0.5707
1,0,41000,8,-0.4466663,-0.12304695,1.465383,0.5713
1,0,41500,8,-0.5991536,-0.27900633,1.1844891,0.5714
1,0,42000,8,-0.80469376,0.29839543,0.9467845,0.5709
1,0,42500,9,-0.9045802,-0.12713122,0.64267755,0.5704
1,0,43000,9,-1.0752627,0.050673652,0.3963598,0.5692
1,0,43500,9,-1.0460373,0.27330694,-0.18042588,0.5673
1,0,44000,9,-1.0277237,-0.31724066,-0.44428137,0.5645
1,0,44500,9,-0.99403846,0.17682578,-0.4649224,0.5611
1,0,45000,9,-0.7996081,0.17581058,-0.052407432,0.5571
1,0,45500,9,-0.72802836,-0.16359366,-0.49765727,0.5522
1,0,46000,9,-0.72062033,-0.042573918,-0.98921925,0.5465
1,0,46500,9,-0.6572719,0.0142535195,-0.61513954,0.5399
1,0,47000,9,-0.5931787,-0.03541585,0.5842672,0.5329
1,0,47500,9,-0.5109421,-0.4813733,0.99166745,0.5253
1,0,48000,9,-0.38924706,0.17543457,0.85417384,0.5177
1,0,48500,9,-0.5143814,0.16325693,0.6844344,0.5098
1,0,49000,9,-0.5607883,0.1514929,0.3831446,0.5018
1,0,49500,9,-0.57301384,0.039826103,0.23447897,0.494
1,0,50000,9,-0.6553042,-0.018007131,0.0060963263,0.4859
1,0,50500,9,-0.6194801,0.24425636,-0.05532168,0.4783
1,0,51000,10,-0.5732228,-0.39328632,0.3331729,0.4714
1,0,51500,10,-0.5058775,0.075461335,0.697783,0.4651
1,0,52000,10,-0.3087125,-0.29680514,0.6264737,0.4596
1,0,52500,10,-0.38410184,0.01194583,0.49471113,0.4548
1,0,53000,10,-0.45558238,-0.19522922,0.39339593,0.4508
1,0,53500,10,-0.5296056,-0.0055098897,0.3682827,0.4475
1,0,54000,10,-0.6295334,0.14994189,0.27607036,0.4451
1,0,54500,10,-0.7092367,0.16151795,0.19477029,0.4435
1,0,55000,10,-0.8043864,-0.13623509,0.08660502,0.4425
1,0,55500,10,-0.9378236,0.3661456,0.058030706,0.4419
1,0,56000,10,-0.9019022,0.011471132,0.046784583,0.4417
1,0,56500,11,-0.8196876,-0.45457873,0.03739492,0.442
1,0,57000,11,-0.68552524,-0.243404,0.12177614,0.4426
1,0,57500,11,-0.43069765,-0.28837338,0.20784107,0.4433
1,0,58000,11,-0.26137483,-0.6067217,0.2184029,0.444
1,0,58500,11,-0.18740958,-0.23687573,0.20978302,0.4446
1,0,59000,11,-0.16990528,0.18249865,0.15569717,0.4453
1,0,59500,11,-0.38261044,0.19994496,0.088580236,0.4458
1,0,60000,11,-0.58074445,0.18887651,0.015660781,0.4462
1,0,60500,11,-0.92340493,0.13986984,0.014683823,0.4465
1,0,61000,12,-1.1292789,0.5659182,-0.057618175,0.4468
1,0,61500,12,-1.2391624,-0.42358705,-0.09170116,0.447
1,0,62000,12,-1.4546374,0.09221676,-0.28111163,0.4468
1,0,62500,12,-1.4817735,-0.4798082,-0.20307423,0.4461
1,0,63000,12,-1.4065148,-0.11622258,-0.31045574,0.4453
1,0,63500,12,-1.3735825,0.12400271,-0.20579414,0.4443
1,0,64000,12,-1.3249992,-0.38393804,-0.2640633,0.4431
1,0,64500,12,-1.218176,0.06837377,0.01035462,0.4415
1,0,65000,12,-1.0686169,-0.16376287,0.04362143,0.4395
1,0,65500,12,-0.7992582,-0.08362353,0.0012304968,0.4368
1,0,66000,12,-0.8604001,0.066742875,-0.04571637,0.4335
1,0,66500,12,-0.87779135,-0.2200404,-0.15990128,0.4292
1,0,67000,12,-0.8845784,-0.028549183,-0.55418986,0.4237
1,0,67500,12,-0.8304595,0.07460594,-0.8424125,0.4169
1,0,68000,12,-0.8472043,-0.44218957,-1.0669477,0.4091
1,0,68500,12,-0.90409464,-0.5862956,-1.8179779,0.4001
1,0,69000,12,-0.8274882,-0.40356985,-0.7027968,0.3901
1,0,69500,12,-0.73576456,-0.35133898,-0.13268152,0.3794
1,0,70000,12,-0.6397669,-0.46476358,0.6560209,0.3681
1,0,70500,12,-0.7098864,-0.267388,0.66200465,0.3563
1,0,71000,12,-0.74594736,0.2566643,0.34673503,0.3443
1,0,71500,12,-0.6826312,-0.68061477,-0.4634736,0.333
1,0,72000,12,-0.7419099,-0.25185457,-1.033757,0.3222
1,0,72500,13,-0.7148229,-0.19952029,0.4710365,0.3121
1,0,73000,13,-0.6554414,-0.1757995,0.73000103,0.3029
1,0,73500,13,-0.6218063,-0.14011727,0.409507,0.2947
1,0,74000,13,-0.611303,-0.09491758,0.35730535,0.2875
1,0,74500,13,-0.5401314,0.24929003,-0.25267974,0.2818
1,0,75000,13,-0.5207274,-0.64039236,-0.29130667,0.2775
1,0,75500,13,-0.7366097,0.14327262,-2.610062,0.2745
1,0,76000,13,-0.706296,0.07302675,0.7937646,0.273
1,0,76500,13,-0.67726886,-0.23484063,0.97968626,0.2729
1,0,77000,13,-0.63862675,-0.16654524,0.78920454,0.2745
1,0,77500,13,-0.7440655,0.08515269,-1.0750275,0.2781
1,0,78000,13,-0.6849879,-0.17159772,0.69118327,0.2833
1,0,78500,14,-0.59344965,-0.101046346,0.66529006,0.2898
1,0,79000,14,-0.78817755,-0.24767627,0.573059,0.2967
1,0,79500,14,-0.8451455,0.03782391,0.46271804,0.3039
1,0,80000,14,-0.90409464,-0.6498205,0.37017098,0.3117
1,0,80500,14,-1.0251602,0.262121,0.2387504,0.3197
1,0,81000,14,-1.0249696,0.12495211,0.29311725,0.3281
1,0,81500,14,-1.0078375,-0.05551296,0.2589473,0.3367
1,0,82000,14,-1.126064,0.2126255,0.09343293,0.3458
1,0,82500,14,-1.1423166,-0.12763883,0.21295142,0.3557
1,0,83000,15,-1.0396241,0.08155721,0.32856148,0.3666
1,0,83500,15,-1.0225358,-0.07854285,0.2996948,0.3785
1,0,84000,15,-1.015566,-0.34413862,0.20314127,0.391
1,0,84500,15,-1.08406,0.06316619,0.11277253,0.4041
1,0,85000,15,-1.0629084,0.4075806,0.055474795,0.4188
1,0,85500,15,-1.0396241,-0.29902825,-0.09405485,0.4337
1,0,86000,15,-0.95169157,0.3239539,-0.51079136,0.4484
1,0,86500,15,-0.8970128,0.37461966,-0.82013524,0.4629
1,0,87000,15,-0.83989656,-0.19732541,-1.0274893,0.4771
1,0,87500,16,-0.8299202,-0.72605884,-0.40741515,0.4909
1,0,88000,16,-0.7754338,-0.7221156,0.20207298,0.5043
1,0,88500,16,-0.7329802,-1.1143006,0.14853513,0.5172
1,0,89000,16,-0.7471955,0.11672714,0.014108969,0.5297
1,0,89500,16,-0.9063463,0.7074298,0.00012135023,0.5415
1,0,90000,16,-1.0435942,-0.11804147,-0.51529884,0.5524
1,0,90500,16,-0.95671195,-0.77446866,0.18185097,0.5617
1,0,91000,16,-0.7378862,-0.57462084,0.25099623,0.5698
1,0,91500,16,-0.6106083,-1.2340702,0.060080044,0.5766
1,0,92000,17,-0.6553042,-0.3323558,-0.0041095144,0.582
1,0,92500,17,-0.61911243,0.1486823,0.24713625,0.5839
1,0,93000,17,-0.62605476,-0.065580316,0.26314783,0.5842
1,0,93500,17,-0.64976084,-1.19021,0.19228938,0.5835
1,0,94000,17,-0.8405567,-0.63014174,0.12330899,0.5818
1,0,94500,17,-0.84023374,-0.15359211,0.07418322,0.5795
1,0,95000,17,-0.81460106,-0.35362318,0.0017709176,0.5769
1,0,95500,17,-0.81949437,0.5682353,-0.12397992,0.5741
1,0,96000,17,-0.82457113,-0.1310839,-0.09089257,0.5713
1,0,96500,17,-0.82609105,-1.5838848,0.09325727,0.5682
1,0,97000,17,-0.7366097,-1.0691243,0.3667948,0.5646
1,0,97500,18,-0.64355564,-0.14347775,0.35363504,0.5602
1,0,98000,18,-0.6206642,0.18723622,0.23600832,0.5552
1,0,98500,18,-0.72062033,0.7227753,0.092627555,0.5495
1,0,99000,18,-0.80470425,0.112628765,-0.030010901,0.5433
1,0,99500,18,-0.8599653,-0.7628127,-0.049939938,0.5353
1,0,100000,18,-0.95671195,-0.036821146,0.20629159,0.5273
1,0,100500,18,-0.8070722,-0.09228089,0.21284579,0.5186
1,0,101000,18,-0.8051923,-0.3041841,0.18005988,0.5091
1,0,101500,19,-0.9754723,0.098195136,0.048698816,0.4987
1,0,102000,19,-0.9140716,0.65987545,-0.059292544,0.4873
1,0,102500,19,-0.871357,-0.05745875,-0.15761499,0.4746
1,0,103000,19,-0.81460106,-1.307465,-0.41132388,0.4605
1,0,103500,19,-0.7014828,-1.4528494,-1.1812116,0.4449
1,0,104000,19,-0.646155,-0.95049226,-0.8954376,0.4279
1,0,104500,19,-0.596854,-0.4367047,-0.79998153,0.4097
1,0,105000,19,-0.4939084,0.9633107,-2.0265777,0.3911
1,0,105500,19,-0.4298999,0.86905736,-2.4534435,0.3719
1,0,106000,19,-0.41580617,0.7401041,-1.0266927,0.3519
1,0,106500,19,-0.42805505,0.22864774,-2.143937,0.3309
1,0,107000,19,-0.44531763,0.6020234,1.5329701,0.3117
1,0,107500,19,-0.34775102,-0.49549672,0.817153,0.2933
1,0,108000,19,-0.33932126,-0.6210567,0.9884993,0.2762
1,0,108500,19,-0.3743326,-0.784442,0.91314006,0.2608
1,0,109000,19,-0.45757377,0.6214531,0.19712457,0.2474
1,0,109500,19,-0.53213394,0.7786909,-0.33284846,0.2361
1,0,110000,19,-0.57633066,-0.5918087,-0.1945343,0.227
1,0,110500,19,-0.6105124,-1.083262,-0.7252978,0.2206
1,0,111000,19,-0.6619891,-0.34411043,-2.133798,0.2171
1,0,111500,19,-0.6243637,0.30856147,-1.649748,0.2169
1,0,112000,19,-0.5832285,-0.02283401,-1.4374405,0.2201
1,0,112500,20,-0.5588783,0.67726064,-1.5379938,0.2267
1,0,113000,20,-0.50677246,0.2579803,0.7784682,0.2367
1,0,113500,20,-0.44709095,0.15777676,1.9935734,0.2502
1,0,114000,20,-0.37796634,-0.5236543,2.034787,0.2675
1,0,114500,20,-0.29892564,-0.18647316,1.7821227,0.2884
1,0,115000,20,-0.2630802,-1.6796516,1.437682,0.3109
1,0,115500,20,-0.32395378,-1.2563763,1.0965551,0.3345
1,0,116000,20,-0.40367547,-1.19256,0.6821496,0.3589
1,0,116500,20,-0.52369964,-0.35684738,0.7244533,0.3837
1,0,117000,20,-0.6622598,-0.017071836,0.735356,0.4087
1,0,117500,20,-0.715736,0.57693964,0.43407252,0.4341
1,0,118000,20,-0.7471955,0.2586101,-0.41407004,0.4591
1,0,118500,20,-0.6507933,0.40002775,0.12385728,0.4837
1,0,119000,20,-0.67471105,-0.20384897,0.31185105,0.5075
1,0,119500,20,-0.7004797,-1.9798768,0.40387288,0.5303
1,0,120000,20,-0.66083187,-1.2380228,0.40612823,0.5517
1,0,120500,20,-0.68270373,-0.4427724,0.3594638,0.5718
1,0,121000,20,-0.7265856,-0.06380842,0.26730835,0.5907
1,0,121500,20,-0.8943625,0.5534961,0.2067786,0.6081
1,0,122000,20,-1.0185223,0.31329903,0.16373374,0.6228
1,0,122500,21,-1.114504,-1.8145127,0.13823447,0.6366
1,0,123000,21,-1.2530684,-0.92450136,0.079302624,0.6492
1,0,123500,21,-1.2869296,-0.8271178,0.07841145,0.6607
1,0,124000,21,-1.3736687,0.098589934,0.01888259,0.6716
1,0,124500,21,-1.3365258,0.8145846,-0.07954461,0.6816
1,0,125000,21,-1.2943037,0.11128927,-0.13958997,0.6906
1,0,125500,21,-1.2563949,0.671193,-0.18248397,0.699
1,0,126000,22,-1.2141246,-0.03968343,-0.101319306,0.7064
1,0,126500,22,-1.0928129,0.48432186,0.35111794,0.7127
1,0,127000,22,-0.7629128,0.27670032,0.40772235,0.718
1,0,127500,22,-0.6928225,-0.24684907,0.26741165,0.7223
1,0,128000,22,-0.72062033,-0.25988212,0.06770401,0.7252
1,0,128500,22,-0.6201367,-0.36075774,0.057903185,0.7267
1,0,129000,22,-0.5685703,0.24290277,0.32577622,0.7271
1,0,129500,22,-0.5460458,0.20111996,0.29343677,0.7261
1,0,130000,22,-0.5877293,-0.17370802,0.19041803,0.724
1,0,130500,22,-0.6859286,-0.98961484,0.13883674,0.7211
1,0,131000,22,-0.7776065,-0.6735977,0.09618144,0.7179
1,0,131500,22,-0.99865,-0.043875813,-0.03185189,0.714
1,0,132000,22,-1.0340253,0.9327844,-0.17018269,0.7095
1,0,132500,22,-1.0299017,0.3002284,-0.30825758,0.7045
1,0,133000,22,-0.8943625,0.57457083,-0.32151014,0.6985
1,0,133500,22,-0.81850916,0.42228213,-0.26306474,0.692
1,0,134000,22,-0.70997965,-0.8595195,-0.049826138,0.6849
1,0,134500,22,-0.54722035,-1.1740185,0.17158647,0.6772
1,0,135000,22,-0.36456728,-0.8901633,0.11973059,0.6689
1,0,135500,22,-0.42113793,0.076095834,-0.06320914,0.6599
1,0,136000,22,-0.45891112,-0.060960233,-0.123431034,0.6504
1,0,136500,22,-0.47582182,-0.23305464,-0.12534148,0.6403
1,0,137000,22,-0.56327564,-0.00755908,-0.2319386,0.6298
1,0,137500,22,-0.6291176,0.24128127,-0.52106225,0.6187
1,0,138000,22,-0.67365795,-0.3117464,-1.518572,0.6072
1,0,138500,22,-0.56468195,-0.18984304,-2.8589947,0.5951
1,0,139000,22,-0.53837466,-0.60461146,-2.6881094,0.5822
1,0,139500,22,-0.5296056,-0.36715913,-2.524153,0.5688
1,0,140000,22,-0.5296056,-0.08182344,-1.9659554,0.5551
1,0,140500,22,-0.6309673,0.12127673,1.3596677,0.5415
1,0,141000,22,-0.57373065,0.08511979,1.4247426,0.5281
1,0,141500,22,-0.5234047,-0.5197674,0.8184062,0.5153
1,0,142000,22,-0.48789737,0.48622066,0.13291837,0.5031
1,0,142500,22,-0.4986773,0.4549329,0.9570087,0.4919
1,0,143000,22,-0.4625639,-0.07089129,0.8896023,0.4822
1,0,143500,22,-0.43961635,-0.6927971,0.7359813,0.4737
1,0,144000,22,-0.46367455,-0.56172884,-0.27497792,0.4669
1,0,144500,22,-0.59664327,-1.9012133,-0.2005227,0.4618
1,0,145000,22,-0.6155534,-0.76026064,-0.1257853,0.4585
1,0,145500,23,-0.593557,-0.17936678,0.7996462,0.4567
1,0,146000,23,-0.5058775,0.42221633,1.0933074,0.4567
1,0,146500,23,-0.45770893,0.24564755,0.9368926,0.4585
1,0,147000,23,-0.48380634,0.041071597,0.73902565,0.4623
1,0,147500,23,-0.5704688,0.04457308,0.5874239,0.4677
1,0,148000,23,-0.60305375,0.49278653,0.36952755,0.4751
1,0,148500,23,-0.661376,0.2128793,0.3158972,0.4837
1,0,149000,23,-0.7190313,-0.3297426,0.22956207,0.4935
1,0,149500,23,-0.8499194,-0.2193965,0.044515226,0.5042
1,0,150000,23,-0.8987834,0.07251915,-0.14542721,0.5158
1,1,150500,23,-0.9431253,-0.25302956,-0.6475473,0.5281
1,1,151000,23,-0.8095007,-0.24757287,0.36596406,0.5408
1,1,151500,23,-0.73954046,0.04692777,0.27205572,0.5535
1,1,152000,23,-0.6926833,-0.6138469,0.17723171,0.5663
1,1,152500,23,-0.6882375,-0.121176355,-0.25314984,0.5788
1,1,153000,23,-0.69234633,-0.16877304,-0.9590371,0.5913
1,1,153500,24,-0.66390115,-0.2867566,-1.0999717,0.6031
1,1,154000,24,-0.6105124,-0.22646998,-1.706805,0.6143
1,1,154500,24,-0.5598077,-0.10670042,0.676701,0.6247
1,1,155000,24,-0.44726095,-0.68773997,0.42801148,0.6345
1,1,155500,24,-0.41246843,-2.1730976,-0.027183322,0.6433
1,1,156000,24,-0.46367455,-0.53331745,-0.4166563,0.6511
1,1,156500,25,-0.38999134,0.060628206,-0.13373931,0.6576
1,1,157000,25,-0.4058181,0.87253064,0.66715264,0.6631
1,1,157500,25,-0.45511034,-0.12196595,0.6049161,0.6669
1,1,158000,25,-0.5588783,-0.9157359,0.44371957,0.6691
1,1,158500,25,-0.8267662,-0.17682411,0.2609129,0.6697
1,1,159000,25,-0.9296956,-0.3526879,0.12522118,0.6689
1,1,159500,25,-1.0215303,-0.00542529,0.05036531,0.6669
1,1,160000,25,-1.0333275,0.74704593,-0.34805846,0.6638
1,1,160500,25,-1.0153105,0.002578773,-0.5016809,0.6597
1,1,161000,25,-0.8796668,-0.0893575,-0.8725059,0.6549
1,1,161500,26,-0.7399234,-0.048326693,-1.2700788,0.6497
1,1,162000,26,-0.6429618,-0.5595762,0.33025602,0.6442
1,1,162500,26,-0.5582705,-1.1751324,0.7137429,0.6384
1,1,163000,26,-0.45757377,-1.1189911,0.5734734,0.6325
1,1,163500,26,-0.5071312,0.40032855,-0.013846134,0.6267
1,1,164000,26,-0.5498673,-0.24291049,-0.3751799,0.6218
1,1,164500,26,-0.59344965,0.043717682,-0.22682737,0.6177
1,1,165000,26,-0.65835726,0.4552196,-0.11227304,0.6148
1,1,165500,26,-0.6784977,0.4487853,0.018435253,0.6137
1,1,166000,27,-0.68527216,-0.04897529,0.93040586,0.6141
1,1,166500,27,-0.56468195,-0.92896163,0.9228834,0.6161
1,1,167000,27,-0.46954036,-0.64175534,0.79074,0.6197
1,1,167500,27,-0.49138957,-0.45116183,0.5754287,0.6246
1,1,168000,27,-0.66083187,0.3875587,0.41782984,0.6307
1,1,168500,27,-0.79602194,0.4548342,0.2968961,0.6381
1,1,169000,27,-0.8160088,0.17655317,0.31030974,0.6462
1,1,169500,27,-0.78895956,-0.012653857,0.31860456,0.655
1,1,170000,27,-0.9377967,-0.31261116,0.2828084,0.664
1,1,170500,27,-0.99548095,-0.91128033,0.109269425,0.6729
1,1,171000,28,-1.0664207,-0.33673617,0.015665451,0.6811
1,1,171500,28,-1.0548384,0.27206615,-3.4445457,0.6884
1,1,172000,28,-0.990426,-0.40229145,-1.1592044,0.6952
1,1,172500,28,-0.7577229,0.33375806,-0.18525611,0.7008
1,1,173000,28,-0.6950099,0.16967711,0.17208692,0.705
1,1,173500,28,-0.6904486,-0.831,0.4566768,0.7081
1,1,174000,28,-0.71526086,-1.384413,0.36438248,0.7099
1,1,174500,28,-0.8350803,-0.45257652,0.30340362,0.7106
1,1,175000,28,-0.91796404,-0.61995685,0.25702986,0.7102
1,2,175500,29,-1.088442,-0.27502075,0.22585265,0.7087
1,2,176000,29,-1.1059035,0.27109325,0.37309515,0.7062
1,2,176500,29,-1.087276,-0.20753846,0.6548239,0.7027
1,2,177000,29,-0.9329838,-0.30349323,0.5889101,0.6981
1,2,177500,29,-0.95055765,-0.22315648,0.4385094,0.6927
1,2,178000,29,-0.95637,-0.41481692,0.2773292,0.6868
1,2,178500,29,-0.9137753,0.53505343,0.19342303,0.6808
1,2,179000,29,-0.8507005,0.70452994,0.15671147,0.6749
1,2,179500,29,-0.81460106,-0.20298418,0.031787906,0.6685
1,2,180000,29,-0.81460106,0.3868255,-0.10033914,0.6622
1,2,180500,29,-0.7701127,0.37069988,-0.2076576,0.6559
1,2,181000,29,-0.73553383,-0.049379487,0.03535404,0.6495
1,2,181500,29,-0.6936725,-0.53040814,-0.054612596,0.6431
1,2,182000,29,-0.6451221,-0.9502713,-0.07586934,0.6366
1,2,182500,29,-0.5760262,-0.5579171,0.25708327,0.6299
1,2,183000,29,-0.4940649,-0.44184178,0.47462422,0.6229
1,2,183500,29,-0.39555243,0.41276938,0.37126875,0.6159
1,2,184000,30,-0.5019146,0.41949505,0.25699863,0.6087
1,2,184500,30,-0.57219887,0.2790362,0.17884363,0.6021
1,2,185000,30,-0.63862675,0.0062447563,-0.023908116,0.5955
1,2,185500,30,-0.7592347,0.13579966,-0.24009247,0.5887
1,2,186000,30,-0.81382036,0.11457456,-0.65891683,0.582
1,2,186500,30,-0.8681625,-0.16020498,-2.396711,0.5753
1,2,187000,30,-0.7786045,-0.044218913,-0.7668446,0.5687
1,2,187500,30,-0.7315332,0.4292475,-0.48347968,0.5629
1,2,188000,31,-0.66754884,-0.20374557,0.5408797,0.558
1,2,188500,31,-0.55305785,0.31250474,0.58458614,0.5537
1,2,189000,31,-0.5178541,0.18318954,0.32444707,0.5501
1,2,189500,31,-0.56838447,0.27312362,0.1522603,0.5474
1,2,190000,31,-0.63862675,-0.44234937,-1.414852,0.5459
1,2,190500,31,-0.7671559,-0.6786455,-2.9003737,0.5451
1,2,191000,31,-0.6356695,0.2547984,0.6518376,0.5454
1,2,191500,31,-0.5154354,0.16559753,0.9834704,0.5465
1,2,192000,31,-0.42058447,0.22963943,0.77970606,0.5477
1,2,192500,31,-0.61647314,-0.5482164,0.28808042,0.5495
1,2,193000,31,-0.6442017,-1.173102,-0.18807901,0.5519
1,2,193500,31,-0.6453531,-0.62475085,0.50174594,0.5546
1,2,194000,31,-0.666344,0.2778847,0.52923036,0.5577
1,2,194500,31,-0.71534,0.7514498,0.3558793,0.5609
1,2,195000,31,-0.7395952,0.016730407,0.28389478,0.5635
1,2,195500,31,-0.70449686,0.47752568,0.25535113,0.5656
1,2,196000,31,-0.7164282,0.2586289,0.21895063,0.5673
1,2,196500,31,-0.7635533,-0.27275535,0.18239489,0.5687
1,2,197000,32,-0.90409464,0.004322465,0.1585697,0.5694
1,2,197500,32,-1.0203522,0.22207247,0.017794743,0.5693
1,2,198000,32,-1.0784322,-0.28971758,-3.787479,0.5687
1,2,198500,32,-1.0215303,0.33540303,-0.96811366,0.5673
1,2,199000,32,-1.0263193,0.32667047,0.15209864,0.5653
1,2,199500,32,-1.0306003,-1.5734086,0.47377944,0.5627
1,2,200000,32,-1.1122823,-0.97312266,0.41481405,0.5596
1,3,200500,32,-1.1424729,-0.54736567,0.33433104,0.5564
1,3,201000,32,-1.2027215,0.31036624,0.28628552,0.5531
1,3,201500,32,-1.2180334,0.96199006,0.25020662,0.5498
1,3,202000,32,-1.2271036,0.28075638,-1.5303173,0.5465
1,3,202500,32,-1.2540419,0.7037873,-3.210124,0.5434
1,3,203000,33,-0.98927045,0.27655932,-0.23284407,0.5407
1,3,203500,33,-0.7189368,-1.7714093,-0.19508377,0.5384
1,3,204000,33,-0.5704688,-0.8033077,0.7183429,0.5365
1,3,204500,33,-0.5391676,0.005784158,0.9526343,0.5352
1,3,205000,33,-0.54314506,0.31393355,1.3289919,0.5347
1,3,205500,33,-0.5628681,0.43797067,1.4401826,0.5347
1,3,206000,33,-0.49990174,0.6796529,1.3393514,0.5353
1,3,206500,33,-0.4535975,0.7727971,1.1725844,0.5364
1,3,207000,33,-0.43298805,0.05756852,0.8580773,0.5379
1,3,207500,33,-1.390805,0.23297171,0.5525443,0.5398
1,3,208000,34,-1.5325141,-0.2201297,0.1688765,0.5419
1,3,208500,34,-1.5870048,-0.23806012,-0.027437484,0.5443
1,3,209000,34,-1.5064436,-0.27246395,-0.53759444,0.547
1,3,209500,34,-1.3287958,-1.0467196,-0.8850873,0.5501
1,3,210000,34,-1.2349609,-0.43048662,-0.5630327,0.5535
1,3,210500,34,-1.17186,-0.44402257,0.16498733,0.557
1,3,211000,34,-1.0306003,0.2376341,0.17779373,0.5607
1,3,211500,34,-1.079769,0.4946383,0.11357645,0.5644
1,3,212000,34,-1.127389,-0.09947655,-0.36547884,0.568
1,3,212500,35,-0.9198492,-0.21151464,-0.5494498,0.5715
1,3,213000,35,-0.9342252,0.07356725,-0.42582622,0.5749
1,3,213500,35,-0.95199114,-0.45666552,-0.31847012,0.5784
1,3,214000,35,-1.0720679,0.43369368,-0.25526422,0.582
1,3,214500,35,-1.088442,-0.043575015,-0.20455252,0.5859
1,3,215000,35,-1.088442,-1.1515762,-1.6768011,0.5902
1,3,215500,35,-1.0463332,-0.6730995,-3.6905046,0.5949
1,3,216000,35,-0.8684607,-0.13008282,-1.3108032,0.5997
1,3,216500,35,-0.5565625,0.19679128,0.3919337,0.6045
1,3,217000,35,-0.35101065,-0.112598896,1.3619465,0.6093
1,3,217500,35,-0.22668211,0.22547054,1.5691478,0.6142
1,3,218000,36,-0.23386759,0.7991546,1.2667177,0.6193
1,3,218500,36,-0.30809274,-0.48295718,0.82208675,0.6245
1,3,219000,36,-0.5058775,0.29045245,0.41598943,0.6296
1,3,219500,36,-0.81801885,0.48959523,0.45806435,0.6346
1,3,220000,36,-1.0796669,-0.2845194,0.5131079,0.6393
1,3,220500,36,-1.2333516,0.67685646,0.61913484,0.6436
1,3,221000,36,-1.2479287,0.0063340557,0.5198468,0.6475
1,3,221500,36,-1.2230645,0.22394775,0.4987485,0.651
1,3,222000,36,-1.2183783,0.100314826,0.56256163,0.6541
1,3,222500,36,-1.214957,-0.84146684,0.46277463,0.6567
1,3,223000,36,-1.4080197,-0.045323405,-0.6318071,0.6587
1,3,223500,36,-1.4354482,-0.31609857,-2.2368715,0.6606
1,3,224000,37,-1.2826422,0.37433296,0.008714682,0.6626
1,3,224500,37,-1.1572977,0.48284137,0.005842457,0.6648
1,3,225000,37,-1.0530735,-0.48636937,-0.013923754,0.6668
1,4,225500,37,-1.0786563,0.10344971,0.112582274,0.6687
1,4,226000,37,-1.0674893,0.100578025,0.116322614,0.6708
1,4,226500,37,-1.0486017,-0.107537016,0.011121481,0.6731
1,4,227000,37,-1.104066,0.32616758,0.023873894,0.6753
1,4,227500,37,-1.1265558,-0.17262232,0.02934259,0.6781
1,4,228000,37,-1.1654727,0.19638708,0.027345777,0.6813
1,4,228500,37,-1.1339601,0.35151926,0.030206038,0.6852
1,4,229000,37,-1.1101875,-1.3239478,0.027184118,0.6895
1,4,229500,37,-1.1388586,-0.79231447,0.03653322,0.6945
1,4,230000,37,-1.1444688,-0.49317023,0.03936576,0.7001
1,4,230500,37,-1.1528723,0.04175309,0.02953489,0.7064
1,4,231000,37,-1.114565,0.5948042,0.03661084,0.713
1,4,231500,37,-1.1001809,0.04848346,0.03290639,0.7198
1,4,232000,37,-1.0928129,0.3659764,0.033539604,0.7266
1,4,232500,37,-1.1493059,-0.58445793,0.030031832,0.7335
1,4,233000,37,-1.2027215,-1.3886477,0.015300988,0.7401
1,4,233500,37,-1.2960532,0.46880722,0.015929533,0.7461
1,4,234000,37,-1.3209275,0.18422824,0.014572937,0.7511
1,4,234500,37,-1.3551238,0.559122,0.016607685,0.7554
1,4,235000,38,-1.3089125,0.41744116,0.0047528613,0.7587
1,4,235500,38,-1.2471534,-0.29735973,-0.08642826,0.7611
1,4,236000,38,-1.1988102,0.28870875,-1.6370496,0.7629
1,4,236500,38,-1.1010314,-0.31675655,-3.0437243,0.7643
1,4,237000,38,-0.8943625,0.11105427,0.70120966,0.7655
1,4,237500,38,-0.7605881,-0.29661244,1.441568,0.7667
1,4,238000,38,-0.5849114,-0.14829053,1.4577473,0.7682
1,4,238500,38,-0.4243977,0.018319001,1.3581159,0.7699
1,4,239000,38,-0.36383373,0.31452572,1.1725689,0.7722
1,4,239500,38,-0.34672728,0.052520745,0.96377945,0.7753
1,4,240000,38,-0.42139333,0.19447419,0.76631606,0.7793
1,4,240500,39,-0.5057482,0.2106703,0.56205744,0.7845
1,4,241000,39,-0.84491473,0.22600165,0.4225886,0.7913
1,4,241500,39,-0.90962005,-1.0055712,0.4522773,0.8001
1,4,242000,39,-0.9708005,-1.1010278,-0.1114341,0.8106
1,4,242500,39,-1.2118915,0.4100011,-3.415098,0.8226
1,4,243000,39,-1.0054684,0.4486772,-0.18292838,0.8357
1,4,243500,40,-0.6590294,0.084254995,0.29842663,0.8495
1,4,244000,40,-0.4939084,-0.19076894,0.40598845,0.8637
1,4,244500,40,-0.60042965,-0.10228244,0.29069468,0.8779
1,4,245000,40,-0.6858795,-0.58439684,0.28186238,0.8915
1,4,245500,40,-0.8196876,0.18617402,0.22854777,0.9041
1,4,246000,40,-0.9606987,0.7039707,0.19577439,0.9156
1,4,246500,40,-1.0486017,-0.3300434,0.18036218,0.9255
1,4,247000,41,-1.2060198,-0.06628531,0.14569384,0.9334
1,4,247500,41,-1.1996338,-0.11664088,0.08791055,0.9389
1,4,248000,41,-1.1779804,-0.13183121,0.25196764,0.9413
1,4,248500,41,-0.9403086,0.09452915,0.50551397,0.9405
1,4,249000,41,-0.85707074,-0.08562572,0.41105562,0.9363
1,4,249500,41,-0.7941159,-0.84219533,0.31322342,0.9291
1,4,250000,41,-0.7702663,-0.5486159,0.21836469,0.9192
1,5,250500,41,-0.66181713,0.06831267,0.32175285,0.9068
1,5,251000,41,-0.58197385,0.052257545,0.23869991,0.8921
1,5,251500,41,-0.666344,0.66256386,0.22813107,0.8753
1,5,252000,41,-0.6545699,0.33215067,0.17042218,0.8568
1,5,252500,42,-0.67193806,-0.42753974,-0.2745186,0.8368
1,5,253000,42,-0.7312947,-0.17293252,-0.32195368,0.8157
1,5,253500,42,-0.6254894,0.09283245,-0.31315988,0.7939
1,5,254000,42,-0.5937184,0.39339137,-0.34655508,0.7718
1,5,254500,42,-0.5768373,0.023893176,-0.300214,0.7499
1,5,255000,42,-0.5819924,0.24594834,-0.05988695,0.7285
1,5,255500,42,-0.5478628,-0.0669715,0.40484077,0.7082
1,5,256000,42,-0.5174075,-0.11338849,0.3747485,0.6891
1,5,256500,42,-0.48789737,0.025326667,0.34035212,0.6714
1,5,257000,42,-0.6246385,0.46096295,0.32600617,0.6549
1,5,257500,43,-0.68879086,0.126959,0.22380653,0.6397
1,5,258000,43,-0.7473369,-0.96656144,0.14666584,0.6257
1,5,258500,43,-0.85988843,-0.30058864,0.039249625,0.6132
1,5,259000,43,-0.7888654,0.4773894,-0.21406445,0.602
1,5,259500,43,-0.73932683,-0.14096797,-0.38900056,0.5923
1,5,260000,43,-0.72596496,0.5391753,-0.91421485,0.584
1,5,260500,43,-0.67711514,0.4690093,-2.3850865,0.5769
1,5,261000,43,-0.5926957,0.33533725,0.0049743406,0.571
1,5,261500,43,-0.47198415,-0.014660748,0.7429554,0.5659
1,5,262000,43,-0.31860775,-0.44586498,0.63927686,0.5616
1,5,262500,44,-0.34407645,-0.7183039,0.5273672,0.5583
1,5,263000,44,-0.37158895,-0.25023776,0.43578804,0.5556
1,5,263500,44,-0.39282024,-0.22827476,0.26216444,0.5537
1,5,264000,44,-0.37657896,0.6613606,0.17568924,0.5526
1,5,264500,44,-0.42689577,0.5544126,0.06779271,0.5523
1,5,265000,44,-0.4761895,0.28053078,0.069123045,0.5528
1,5,265500,44,-0.5223095,-0.20604387,0.16611603,0.5541
1,5,266000,44,-0.5058775,0.36129993,0.042684738,0.5559
1,5,266500,44,-0.6190306,0.56988966,0.0793569,0.5582
1,5,267000,44,-0.66444933,-0.58261085,0.042972166,0.5611
1,5,267500,44,-0.6274291,0.13373166,0.26438478,0.5647
1,5,268000,44,-0.49007294,-0.04043543,0.328853,0.5689
1,5,268500,44,-0.51366305,-0.005223191,0.2526957,0.5732
1,5,269000,44,-0.56240386,-0.53206724,0.15686817,0.5779
1,5,269500,44,-0.6827872,0.059138313,0.110075675,0.583
1,5,270000,44,-0.67137563,0.23999818,0.1176865,0.5881
1,5,270500,44,-0.67649263,-0.16048698,0.061446853,0.5933
1,5,271000,44,-0.70449686,0.094562046,-0.14644356,0.5985
1,5,271500,44,-0.6278269,0.66409135,-0.15657908,0.6035
1,5,272000,44,-0.53687114,0.3814158,-0.23117524,0.6082
1,5,272500,44,-0.4603336,-0.2850176,-0.37556973,0.6125
1,5,273000,44,-0.44531763,0.3657884,-0.62018335,0.6161
1,5,273500,44,-0.36327055,0.3260595,-0.8076283,0.6189
1,5,274000,45,-0.3820706,0.4057382,-0.17276573,0.6211
1,5,274500,45,-0.38990447,-0.36972532,0.33665,0.6221
1,5,275000,45,-0.33162856,0.03188314,0.3100629,0.6219
1,6,275500,45,-0.4991145,0.26821685,0.2317687,0.6206
1,6,276000,45,-0.63859165,0.3675133,0.15148264,0.6183
1,6,276500,45,-0.8095007,-0.13974597,0.008278436,0.6151
1,6,277000,45,-1.1227028,-0.16209437,-0.03155075,0.6111
1,6,277500,45,-1.2194613,-0.74812055,-0.031322267,0.6058
1,6,278000,45,-1.1654727,-0.07021919,-0.13098964,0.599
1,6,278500,45,-1.1480267,0.30836877,-0.24512464,0.5909
1,6,279000,45,-1.1316626,-0.16288866,-0.54965085,0.5817
1,6,279500,45,-1.1799337,0.44880882,-0.5744863,0.5715
1,6,280000,45,-1.1177617,0.05481433,-1.1277112,0.5603
1,6,280500,45,-0.9847795,0.21843939,-2.5775704,0.5484
1,6,281000,45,-0.850894,0.46358085,-2.7938454,0.5361
1,6,281500,45,-0.7182529,0.38118082,-0.62734306,0.5232
1,6,282000,45,-0.55717033,-0.1317701,1.2216427,0.51
1,6,282500,45,-0.36383373,0.41570216,0.9146426,0.4963
1,6,283000,46,-0.3955299,0.22273515,1.0479891,0.4824
1,6,283500,46,-0.31958312,0.3204806,1.1037233,0.4686
1,6,284000,46,-0.29067582,-0.23992132,0.9158381,0.4543
1,6,284500,46,-0.42679557,0.19634949,0.74597234,0.4399
1,6,285000,46,-0.5992261,0.20645913,0.55140364,0.4257
1,6,285500,46,-0.7062892,0.07972892,0.39084703,0.4122
1,6,286000,46,-0.84491473,0.13439907,0.008809519,0.3991
1,6,286500,46,-0.83205354,0.43923026,-0.0883921,0.3863
1,6,287000,47,-0.8406443,-0.01200056,0.06843293,0.3736
1,6,287500,47,-0.85988843,0.043257087,0.37836483,0.3611
1,6,288000,47,-0.6074971,0.20440994,0.24978817,0.3488
1,6,288500,47,-0.6303733,-0.0018721065,0.07287302,0.3365
1,6,289000,47,-0.6670446,-0.893129,-0.10939264,0.3244
1,6,289500,47,-0.76819247,-0.1538694,-0.2415302,0.3125
1,6,290000,47,-0.7400689,0.24885294,-0.4013649,0.3008
1,6,290500,47,-0.72950476,-0.14219937,-0.93413776,0.2886
1,6,291000,47,-0.7419099,0.4284062,-0.91511333,0.2761
1,6,291500,47,-0.74600095,0.37807414,-2.5134192,0.2635
1,6,292000,47,-0.70702505,0.0182955,-2.6794534,0.2504
1,6,292500,47,-0.63839686,0.33334446,-2.2284648,0.2367
1,6,293000,47,-0.52369964,-0.07846295,-1.9082451,0.2224
1,6,293500,47,-0.47165397,0.101903416,-0.98693067,0.2072
1,6,294000,47,-0.4350379,-0.18427357,2.0247507,0.1912
1,6,294500,47,-0.41321623,0.30295908,1.5969968,0.1743
1,6,295000,47,-0.35743198,0.02506347,1.4498318,0.1565
1,6,295500,47,-0.34827405,0.36294022,1.5090541,0.1376
1,6,296000,47,-0.3419467,0.31585583,1.1743014,0.1207
1,6,296500,47,-0.34475058,-0.5556189,0.83774143,0.1047
1,6,297000,47,-0.43298805,-0.45675012,0.3244643,0.0893
1,6,297500,47,-0.5829093,-0.02720969,-1.2474815,0.0749
1,6,298000,47,-0.67619276,-0.29680985,-1.3900597,0.0618
1,6,298500,47,-0.7312947,0.44370934,-2.099451,0.0497
1,6,299000,47,-0.7594846,0.35469174,-1.1562318,0.0386
4,0,500,1,1.3414074,0.2346684,2.1970162,0.1168
4,0,1000,1,1.3239217,-0.058121447,1.8394831,0.1321
4,0,1500,1,1.3742766,-0.0009509107,1.5155855,0.1477
4,0,2000,1,1.3958067,-0.13136591,1.2721852,0.1635
4,0,2500,1,1.3958067,0.89615273,1.03148,0.1795
4,0,3000,1,1.3958067,0.40131554,0.8275852,0.1959
4,0,3500,1,1.3899759,-0.7828534,0.72562164,0.2125
4,0,4000,1,1.389719,-0.65031874,0.50979537,0.2293
4,0,4500,1,1.3805306,-0.14568204,0.14004453,0.2324
4,0,5000,1,1.378718,0.4950566,-1.0946664,0.2356
4,0,5500,2,1.3548489,0.47096452,-0.04125761,0.2391
4,0,6000,2,1.365195,0.36124822,-0.9642741,0.2427
4,0,6500,2,1.3590726,0.21055281,-0.47302666,0.2466
4,0,7000,2,1.3455251,0.17995125,-2.0660908,0.2507
4,0,7500,2,1.3321401,-0.49623933,-1.7975878,0.2549
4,0,8000,2,1.3259448,-0.66330004,-1.7991223,0.2591
4,0,8500,2,1.2867051,0.26912865,-2.035496,0.2635
4,0,9000,2,1.3070527,0.017463604,-1.686754,0.2678
4,0,9500,2,1.3032886,-0.089395106,-1.2275279,0.272
4,0,10000,2,1.3129531,0.3242594,-1.1756463,0.2763
4,0,10500,2,1.3393106,0.09777214,-0.97190744,0.281
4,0,11000,2,1.364228,-1.2800595,1.8279053,0.2857
4,0,11500,2,1.43406,-0.55171317,2.9350696,0.2904
4,0,12000,2,1.4520698,-0.106747426,2.409787,0.295
4,0,12500,2,1.4676793,-0.1326725,1.9482895,0.2997
4,0,13000,2,1.5193596,-0.11373159,1.6545877,0.3043
4,0,13500,2,1.4904894,1.0748882,1.2645869,0.3089
4,0,14000,2,1.5107418,-0.08691821,0.9159741,0.3135
4,0,14500,2,1.4900781,-0.20794265,0.48656893,0.318
4,0,15000,2,1.5128189,-0.2675807,0.26813856,0.3225
4,0,15500,2,1.5462723,0.2134151,-0.05423646,0.327
4,0,16000,2,1.5543661,-0.025827896,0.074793965,0.3315
4,0,16500,3,1.5382682,-0.08336503,-0.019882098,0.336
4,0,17000,3,1.5460471,-0.33547187,0.55312616,0.3407
4,0,17500,3,1.5543661,-0.25283685,1.3058909,0.3451
4,0,18000,3,1.5543661,0.2553577,0.89584076,0.3492
4,0,18500,3,1.5655191,0.2361583,0.39758828,0.3532
4,0,19000,3,1.5360985,0.0633354,0.3152281,0.3569
4,0,19500,4,1.5000342,-0.48820707,0.024046933,0.3602
4,0,20000,4,1.4476126,-0.40183085,0.022199815,0.3632
4,0,20500,4,1.4109567,0.11829224,0.039807554,0.3659
4,0,21000,4,1.3895906,0.4725061,-0.059995793,0.3683
4,0,21500,4,1.3688761,0.5047715,-0.29135922,0.3704
4,0,22000,4,1.3574427,-0.0471611,-1.6012878,0.372
4,0,22500,4,1.3574427,-0.0668399,-1.256362,0.3733
4,0,23000,4,1.3478832,0.6072545,-1.6072353,0.3741
4,0,23500,4,1.3552114,0.24828894,-0.39965552,0.3746
4,0,24000,4,1.3574427,-0.2847403,-1.6749809,0.3747
4,0,24500,4,1.3693099,0.08873878,-2.5633318,0.3743
4,0,25000,5,1.3586905,0.37974733,0.5852051,0.3736
4,0,25500,5,1.3723752,1.4473662,1.7303972,0.3726
4,0,26000,5,1.3860973,1.0508479,1.3899027,0.3711
4,0,26500,5,1.3724781,0.0039699664,1.1039008,0.3695
4,0,27000,5,1.2805797,-1.1087546,0.5318592,0.3677
4,0,27500,5,1.1302451,-2.2521794,-1.0600512,0.3659
4,0,28000,5,0.9248804,-1.7407936,0.25910664,0.3639
4,0,28500,5,0.7685206,-1.0391009,0.5721147,0.3619
4,0,29000,5,0.6870904,-0.59678596,0.29978758,0.36
4,0,29500,5,0.6283503,-0.16271007,0.2793304,0.3582
4,0,30000,6,0.60511094,-0.11923526,-0.06490919,0.3564
4,0,30500,6,0.62629503,0.19042751,0.12071572,0.3546
4,0,31000,6,0.71258086,0.33617383,-1.5872941,0.3529
4,0,31500,6,0.7837188,0.046227474,-1.62898,0.3513
4,0,32000,6,0.8247412,0.09820923,-1.9814298,0.3497
4,0,32500,6,0.86648256,0.24858974,-2.0157106,0.348
4,0,33000,6,0.8987708,0.15086779,-1.9220941,0.3461
4,0,33500,7,0.95242226,-0.23786272,-0.16422406,0.3439
4,0,34000,7,1.0086707,-1.156027,2.508019,0.3417
4,0,34500,7,1.1031603,-1.1079838,2.1321955,0.3393
4,0,35000,7,1.1582623,-0.8833389,1.7557769,0.3365
4,0,35500,7,1.1093934,-0.3071968,1.320262,0.3333
4,0,36000,7,1.0473554,0.077980526,0.99628145,0.3298
4,0,36500,7,0.9271747,0.16048865,0.85960954,0.3259
4,0,37000,7,0.7837188,0.16600642,0.7052033,0.3215
4,0,37500,7,0.6738952,-0.13071261,0.5455454,0.3167
4,0,38000,7,0.5831937,-0.17211471,-0.42726192,0.3115
4,0,38500,7,0.5746141,-0.25412935,-1.0180985,0.3059
4,0,39000,7,0.5530345,0.32717338,-1.4618878,0.2999
4,0,39500,7,0.5788275,0.10243921,-1.2078568,0.2936
4,0,40000,7,0.636896,-0.27268487,0.40403306,0.2873
4,0,40500,7,0.78157103,-0.14229806,1.1036551,0.2809
4,0,41000,7,0.8764733,-0.023571907,0.9570157,0.2746
4,0,41500,7,0.91528815,0.46776384,1.0536171,0.2685
4,0,42000,7,0.93937975,0.5998708,0.67367184,0.2628
4,0,42500,7,0.93093616,-0.014289449,0.43248746,0.2576
4,0,43000,7,0.903182,-0.55965614,0.35277042,0.2531
4,0,43500,7,0.84288514,-0.456642,0.40661815,0.2489
4,0,44000,7,0.8045247,0.047820766,0.34782317,0.2451
4,0,44500,7,0.7943714,0.41810855,0.26377434,0.2417
4,0,45000,7,0.7697484,0.37625524,0.13740602,0.2388
4,0,45500,7,0.72850806,0.16758092,-1.3877137,0.2364
4,0,46000,7,0.66868126,0.13086939,-2.1942165,0.2344
4,0,46500,7,0.61260843,0.047266167,-0.6159248,0.2327
4,0,47000,7,0.5823786,0.08812778,0.24723576,0.2314
4,0,47500,7,0.5941444,0.3051681,0.82632494,0.2303
4,0,48000,7,0.7164613,0.31650442,0.8043988,0.2295
4,0,48500,7,0.7550979,0.016580008,0.6673706,0.229
4,0,49000,7,0.7829343,-0.032276265,0.5781513,0.2286
4,0,49500,7,0.7630736,-0.15036322,0.5206081,0.2282
4,0,50000,7,0.7225027,-0.3248546,0.43927246,0.2277
4,0,50500,7,0.7032134,0.52030486,0.25144443,0.2269
4,0,51000,7,0.684185,0.30836406,0.055555623,0.2262
4,0,51500,7,0.70757794,0.18532333,-0.005607927,0.2255
4,0,52000,7,0.76198846,-0.370106,0.039481606,0.2247
4,0,52500,8,0.7896249,-0.10498023,-0.013173235,0.2238
4,0,53000,8,0.7785576,0.24497075,-0.42551604,0.2228
4,0,53500,8,0.83477527,0.39189208,-0.73337466,0.2217
4,0,54000,8,0.9041977,0.36142683,-0.99006724,0.2205
4,0,54500,8,0.9298255,0.15497558,-0.7410859,0.2191
4,0,55000,8,0.89446527,0.17222449,-1.3806745,0.2177
4,0,55500,8,0.8009787,-0.08423923,-0.73788947,0.2163
4,0,56000,8,0.70072985,0.0402585,-1.1965661,0.2149
4,0,56500,8,0.62486255,-0.1958778,-1.1936145,0.2134
4,0,57000,8,0.5349035,-0.5827471,0.5881777,0.212
4,0,57500,8,0.54066324,-0.66809875,1.200711,0.2106
4,0,58000,9,0.6655452,-0.3099134,1.006658,0.2091
4,0,58500,9,0.6612243,0.6821768,0.8398658,0.2073
4,0,59000,9,0.6174006,0.97037953,0.7030203,0.2055
4,0,59500,9,0.5455161,0.5390108,0.46029606,0.2037
4,0,60000,9,0.45317042,-0.92778194,0.14626577,0.2017
4,0,60500,9,0.44410238,-0.7790088,0.30641505,0.1997
4,0,61000,9,0.44406596,0.4550457,-0.15682332,0.1977
4,0,61500,9,0.47336003,0.10872308,-0.75069034,0.1961
4,0,62000,9,0.5347365,0.13812146,-1.4313929,0.1946
4,0,62500,10,0.60000306,0.61309654,-1.7866081,0.1933
4,0,63000,10,0.67136174,0.37806943,-1.33376,0.1921
4,0,63500,10,0.7431482,-0.077786155,-0.61589414,0.1911
4,0,64000,10,0.7904456,-0.49446744,0.90885437,0.19
4,0,64500,10,0.8501838,-0.606482,1.2706532,0.1889
4,0,65000,10,0.88939285,-0.31498465,1.1335545,0.1879
4,0,65500,10,0.86260915,-0.10850991,0.9574374,0.187
4,0,66000,10,0.8462649,0.09316146,1.329827,0.1863
4,0,66500,10,0.84264433,0.035389323,1.112417,0.1857
4,0,67000,10,0.7558757,0.017054707,0.82645977,0.1851
4,0,67500,10,0.60715747,0.0618596,0.7576241,0.1846
4,0,68000,10,0.47262055,0.52432334,0.33182707,0.184
4,0,68500,10,0.30875748,0.6218761,0.2810894,0.1834
4,0,69000,10,0.21842681,-0.66944295,0.12680712,0.1825
4,0,69500,10,0.15556145,-0.17420621,0.09144896,0.1816
4,0,70000,10,0.19060342,-0.07146469,0.3172255,0.1806
4,0,70500,11,0.257553,0.19933866,0.07405774,0.1795
4,0,71000,11,0.32500595,0.6725325,-0.089015394,0.1782
4,0,71500,11,0.39111215,0.0076782494,-0.2518119,0.1769
4,0,72000,11,0.46551856,-0.08217124,-0.16776334,0.1755
4,0,72500,11,0.5359369,-0.009580071,-0.14140499,0.1741
4,0,73000,11,0.57908696,-0.18996523,-0.12740687,0.1728
4,0,73500,12,0.62029964,0.0822105,-0.049136896,0.1715
4,0,74000,12,0.7134525,-0.0901189,0.028854694,0.1702
4,0,74500,12,0.7528107,-0.3749846,0.0011070637,0.1689
4,0,75000,12,0.68333626,-0.38698363,0.027271075,0.1678
4,0,75500,12,0.551169,-0.106526524,0.06821057,0.1669
4,0,76000,12,0.39517027,-0.20283379,0.07750424,0.1661
4,0,76500,12,0.25523853,-0.014764147,0.050269306,0.1655
4,0,77000,12,0.14260462,0.14142083,-0.0060818167,0.1652
4,0,77500,12,0.06495627,0.6451081,-0.74909914,0.1651
4,0,78000,13,0.038345203,1.0617988,-2.0732348,0.165
4,0,78500,13,0.105152,0.25301713,-1.2583228,0.1652
4,0,79000,13,0.118911915,0.26450387,-0.87507695,0.1657
4,0,79500,13,0.18447876,-0.048401892,-1.0700725,0.1665
4,0,80000,13,0.2636814,-0.12168866,-0.6334158,0.1677
4,0,80500,13,0.43443763,-0.81456417,0.9046328,0.169
4,0,81000,13,0.6272709,-0.4200762,1.2974032,0.1705
4,0,81500,13,0.7504069,-0.048124593,1.0843878,0.1723
4,0,82000,13,0.7985933,-0.09610197,0.8294469,0.1744
4,0,82500,13,0.7554848,-0.08696521,0.7187167,0.1769
4,0,83000,13,0.65159106,0.021209488,0.7017474,0.1799
4,0,83500,13,0.41353637,0.31837973,0.60741013,0.1833
4,0,84000,13,0.13696489,-0.37521487,0.54173183,0.1873
4,0,84500,13,-0.043222945,-0.028032186,0.50314134,0.1918
4,0,85000,14,-0.11534146,0.050715953,0.44834,0.1969
4,0,85500,14,-0.10399122,0.08153371,0.3875374,0.2029
4,0,86000,14,-0.031440306,0.2780633,0.38008532,0.2095
4,0,86500,14,0.012245741,-0.45094565,1.00132,0.2167
4,0,87000,14,0.08801761,0.8828565,-0.87370664,0.2244
4,0,87500,14,0.21785282,0.33248436,-1.5099549,0.2325
4,0,88000,14,0.30358917,-1.1471347,-2.4834368,0.2413
4,0,88500,14,0.35968143,-1.7181585,-2.4109747,0.2505
4,0,89000,14,0.39845648,-2.0155027,-1.2046846,0.2602
4,0,89500,14,0.46061504,-2.0063047,0.17680043,0.2704
4,0,90000,14,0.5301702,-1.2118721,0.3354361,0.2809
4,0,90500,14,0.52616364,-0.7034802,0.33145094,0.2919
4,0,91000,14,0.47678316,-0.44172427,0.17200026,0.3031
4,0,91500,15,0.36358902,-0.31607035,0.625078,0.3143
4,0,92000,15,0.36358902,-0.25928053,0.56475574,0.3256
4,0,92500,15,0.29765934,-0.050295983,0.5235866,0.3368
4,0,93000,15,0.2014639,0.09047307,0.46411198,0.3477
4,0,93500,15,0.10088892,0.064999186,0.41233897,0.3583
4,0,94000,15,0.030937888,0.11926983,0.34326783,0.3686
4,0,94500,15,0.024375776,0.2579192,0.25073215,0.3787
4,0,95000,15,0.073766865,-0.45185745,-0.12656239,0.3887
4,0,95500,15,0.14621745,0.11542055,-0.35202524,0.3984
4,0,96000,15,0.21570136,0.08503989,0.0055296435,0.4085
4,0,96500,16,0.29458037,0.29487982,0.011230032,0.4185
4,0,97000,16,0.33759436,0.30743346,-0.008794134,0.4285
4,0,97500,16,0.3494683,-0.028060386,-0.029996604,0.4385
4,0,98000,16,0.34795246,-0.06177803,0.14042883,0.4483
4,0,98500,16,0.3323084,0.15632446,0.24256982,0.458
4,0,99000,16,0.35445896,0.48575065,0.22480187,0.4677
4,0,99500,16,0.31135958,-0.24848936,0.2021897,0.4775
4,0,100000,16,0.21134323,0.27427983,0.19878231,0.4873
4,0,100500,16,0.11969424,0.34673938,0.18541682,0.4971
4,0,101000,16,0.034084905,0.2971546,0.16199633,0.5069
4,0,101500,16,-0.028685896,0.3226802,0.14923137,0.5165
4,0,102000,17,-0.0401425,0.639078,0.1317322,0.526
4,0,102500,17,-0.025382824,-0.27637434,0.12412166,0.5353
4,0,103000,17,0.010981522,0.15380058,0.10522648,0.5445
4,0,103500,17,0.06769171,0.26212567,0.086863846,0.5531
4,0,104000,17,0.11864452,0.22048856,0.07415287,0.5614
4,0,104500,17,0.16918178,0.20318794,0.22208343,0.5692
4,0,105000,17,0.2360394,0.6908436,0.17704204,0.5764
4,0,105500,17,0.28771144,0.67512685,-0.022409702,0.5829
4,0,106000,17,0.3460553,0.50918,0.25543252,0.5885
4,0,106500,17,0.29193926,0.40361384,0.2735337,0.5933
4,0,107000,17,0.26027027,-0.61561877,-0.072202824,0.5973
4,0,107500,17,0.17698823,-1.0705438,-0.07361924,0.6003
4,0,108000,17,0.09175631,0.1482922,-0.09626643,0.6023
4,0,108500,17,0.044171963,0.298433,-0.09201368,0.6035
4,0,109000,18,0.05050355,0.2343817,-0.24551128,0.6038
4,0,109500,18,0.05050355,-0.21901111,-0.5058669,0.6033
4,0,110000,18,0.07517311,-0.3743783,-0.50695,0.6019
4,0,110500,18,0.14725855,-0.20334607,-0.090795696,0.5997
4,0,111000,18,0.257362,0.074746944,-0.03602177,0.5969
4,0,111500,18,0.36361426,0.14932619,0.12208545,0.5935
4,0,112000,18,0.43046656,-0.0686259,0.10051677,0.5895
4,0,112500,18,0.4587326,-0.047626395,0.098548844,0.5852
4,0,113000,18,0.44406596,0.40501443,0.08306602,0.5806
4,0,113500,18,0.44406596,0.2549676,0.054803938,0.5757
4,0,114000,18,0.4350852,0.04660347,0.040208783,0.5703
4,0,114500,18,0.48431918,-0.016033141,0.046424497,0.5647
4,0,115000,18,0.49741364,0.13730365,0.034977615,0.5589
4,0,115500,18,0.5475425,-0.25208485,0.05059729,0.5531
4,0,116000,18,0.6103604,-0.1773317,-0.023342015,0.5467
4,0,116500,18,0.68226665,0.13122658,-0.7275573,0.5405
4,0,117000,18,0.7482741,0.056111526,-0.6044788,0.5342
4,0,117500,18,0.83400697,0.15601897,-0.37872177,0.5279
4,0,118000,18,0.8971019,-0.7842963,0.29997435,0.5216
4,0,118500,18,0.96856207,-0.72861564,1.0642005,0.5149
4,0,119000,19,0.9846508,-0.28851438,0.6478317,0.5081
4,0,119500,19,0.9345084,-0.1326866,0.07742516,0.5011
4,0,120000,19,0.81635815,-0.01848653,-0.08384638,0.4941
4,0,120500,19,0.62619627,0.0827416,0.04997225,0.4869
4,0,121000,19,0.43528175,0.2160001,-0.34446138,0.4799
4,0,121500,19,0.29723382,0.24310017,-0.288002,0.4728
4,0,122000,20,0.21842681,0.012918726,-0.0969478,0.4657
4,0,122500,20,0.050879683,0.05093215,-0.056558635,0.4587
4,0,123000,20,0.025630977,-0.27741775,-0.029556856,0.4518
4,0,123500,20,0.024025517,-0.0470718,-0.025156744,0.4452
4,0,124000,20,0.06502696,0.37803653,-0.016804734,0.4387
4,0,124500,20,0.12897108,0.48179325,0.012162345,0.4323
4,0,125000,20,0.13089326,0.13165428,0.03871358,0.426
4,0,125500,20,0.18550552,-0.7373247,-0.7058867,0.4201
4,0,126000,20,0.22186424,-0.40012947,-0.83721775,0.4143
4,0,126500,20,0.32406783,-0.6497641,-0.63805926,0.4085
4,0,127000,20,0.39532393,-0.685545,-0.2012318,0.4026
4,0,127500,21,0.5376387,-0.25388965,0.28206196,0.3964
4,0,128000,21,0.628041,0.10056862,0.36458236,0.39
4,0,128500,21,0.6708214,0.06966627,0.041267738,0.3834
4,0,129000,21,0.6992735,-0.04428001,-0.07678998,0.3769
4,0,129500,21,0.66398525,0.08114831,-0.058391165,0.3704
4,0,130000,21,0.6104596,0.118743435,-0.025829935,0.3641
4,0,130500,21,0.5497691,0.19963947,-0.047414668,0.3579
4,0,131000,21,0.53206015,0.04827196,-0.6679344,0.3522
4,0,131500,21,0.5680467,-0.31722185,-0.9480554,0.3467
4,0,132000,21,0.6155578,-0.13795058,0.11060151,0.3415
4,0,132500,22,0.73240304,-0.23146605,0.4576287,0.3365
4,0,133000,22,0.7625829,-0.5045724,0.55437624,0.3317
4,0,133500,22,0.7437345,-1.2847406,0.46633554,0.3274
4,0,134000,22,0.69741064,-1.9551173,0.030483544,0.3237
4,0,134500,22,0.56584585,-1.3940809,0.08184307,0.3207
4,0,135000,22,0.440312,0.3838222,-2.1392279,0.3188
4,0,135500,22,0.34454453,1.3056148,-2.6861284,0.3179
4,0,136000,22,0.33808097,-0.9059975,0.36460832,0.318
4,0,136500,22,0.49194086,-0.76900727,1.3615668,0.3193
4,0,137000,23,0.69445336,0.07235465,1.3099843,0.3219
4,0,137500,23,0.7806089,0.07900042,1.2413561,0.3256
4,0,138000,23,0.8263955,0.63824147,0.06306782,0.3302
4,0,138500,23,0.7828063,1.681552,-3.2845156,0.3356
4,0,139000,23,0.7389256,0.7508952,-2.2798812,0.3418
4,0,139500,23,0.82298726,-1.58067,0.5648418,0.3488
4,0,140000,23,0.9172221,-0.86381525,1.2130809,0.3567
4,0,140500,23,0.90244526,-0.7134817,0.9218478,0.3652
4,0,141000,23,0.91548026,-0.32605782,0.3734637,0.3743
4,0,141500,24,0.93067783,0.5711728,-1.602563,0.3839
4,0,142000,24,0.913865,0.28581828,-1.2167014,0.3941
4,0,142500,24,0.87165165,-0.29375955,-0.8468178,0.4045
4,0,143000,24,0.83181596,-0.5899945,-0.62593305,0.4153
4,0,143500,24,0.8004625,-0.52850467,-1.0565311,0.4262
4,0,144000,24,0.76184446,-1.2367773,-0.99009144,0.437
4,0,144500,24,0.74373895,-3.5649774,-0.9807266,0.4475
4,0,145000,24,0.7838024,-4.265293,-1.4429842,0.4575
4,0,145500,24,0.8254931,-3.9622009,-0.02814861,0.467
4,0,146000,24,0.8254931,-1.9554933,1.8683677,0.4759
4,0,146500,24,0.8254931,-1.4332364,-0.042919137,0.4841
4,0,147000,25,0.758916,-3.4830945,-1.2749175,0.4917
4,0,147500,25,0.69168454,-4.3118277,-1.3168237,0.4985
4,0,148000,25,0.5896337,-3.9253247,-0.40685576,0.5043
4,0,148500,25,0.53841865,-3.9227304,2.4773767,0.5093
4,0,149000,25,0.59512866,-1.4446009,2.3542988,0.5133
4,0,149500,25,0.6558606,0.07293275,1.8975148,0.5162
4,0,150000,25,0.6513646,-0.23494874,1.5526849,0.5183
4,1,150500,25,0.6192426,0.25031933,1.3135884,0.5193
4,1,151000,25,0.5852658,-0.8153021,1.0227834,0.5192
4,1,151500,25,0.55554914,-3.283679,0.34401894,0.5179
4,1,152000,25,0.55554914,-3.8644788,-0.11843506,0.5154
4,1,152500,25,0.5599041,-3.1405082,-1.2269927,0.5118
4,1,153000,25,0.5885623,-2.1334534,-2.7595387,0.5073
4,1,153500,25,0.63241667,-1.8539408,-1.6132605,0.5019
4,1,154000,25,0.6229036,-1.1065456,-1.3034229,0.4959
4,1,154500,25,0.63231903,0.44667503,-1.3699288,0.489
4,1,155000,25,0.615123,0.036023818,0.06456653,0.4813
4,1,155500,25,0.58918333,0.4916726,-0.16092113,0.4729
4,1,156000,25,0.5557547,1.0239029,-1.5227728,0.4639
4,1,156500,25,0.5460697,0.80984235,-1.1599928,0.4541
4,1,157000,25,0.5460697,0.12877789,-0.5577922,0.4438
4,1,157500,25,0.57580787,-0.9282472,2.3724055,0.4327
4,1,158000,25,0.6597803,-0.068724595,2.5496583,0.4209
4,1,158500,25,0.7179121,0.12050593,2.1380475,0.4087
4,1,159000,25,0.69717574,-0.60073864,1.6662734,0.3961
4,1,159500,25,0.66280407,-3.220394,1.3421988,0.3833
4,1,160000,25,0.6242056,-2.509851,1.2055775,0.3704
4,1,160500,25,0.5592353,-1.3518046,1.0094413,0.3574
4,1,161000,25,0.52542216,-2.6084614,0.8513789,0.3446
4,1,161500,25,0.4991939,0.15117799,0.81439596,0.332
4,1,162000,25,0.46356216,-1.0408493,0.69940805,0.32
4,1,162500,26,0.43104514,-2.6605465,0.5039677,0.3086
4,1,163000,26,0.42595583,-2.3744824,0.31145304,0.2981
4,1,163500,26,0.42595583,-2.2148569,0.24482545,0.2884
4,1,164000,26,0.43588018,-1.6331923,0.14799559,0.2797
4,1,164500,26,0.4780023,-0.60419315,-0.114642784,0.2717
4,1,165000,26,0.5398687,-0.053618867,-0.81122446,0.2646
4,1,165500,26,0.59354055,0.39542645,-0.72858995,0.2583
4,1,166000,26,0.6518286,0.4913248,-1.0011342,0.2526
4,1,166500,26,0.7141567,0.6050408,-0.59228224,0.2477
4,1,167000,26,0.7570061,0.82785267,-1.5433438,0.2437
4,1,167500,26,0.7788584,-0.3966421,0.47628254,0.2402
4,1,168000,26,0.81844306,0.192284,1.3105378,0.2374
4,1,168500,26,0.8862157,0.6217163,1.2657477,0.2351
4,1,169000,26,0.8603172,0.64062905,1.1156391,0.233
4,1,169500,26,0.7955205,0.3449534,0.84423995,0.231
4,1,170000,26,0.6721094,0.20117636,0.429687,0.2291
4,1,170500,26,0.45227554,1.1506048,0.17314588,0.2271
4,1,171000,26,0.27993664,0.96572655,0.033455856,0.2251
4,1,171500,26,0.21079887,0.67969525,-0.0060882363,0.2229
4,1,172000,26,0.21905333,-0.0473726,0.018110184,0.2209
4,1,172500,26,0.26561326,0.5795528,0.027712867,0.219
4,1,173000,26,0.31133625,0.73252773,0.008157629,0.2173
4,1,173500,26,0.34313172,0.69865966,-0.036132656,0.2156
4,1,174000,26,0.38250026,1.4512296,-0.6329419,0.214
4,1,174500,26,0.42595583,0.4942435,-0.88850695,0.2127
4,1,175000,26,0.5033824,0.8262594,-0.4420479,0.2119
4,2,175500,26,0.5572581,1.2384428,-1.2920872,0.2116
4,2,176000,26,0.63521415,0.22306886,-2.73855,0.2117
4,2,176500,26,0.72110254,0.21299681,-1.5759572,0.2125
4,2,177000,26,0.8039376,-1.4692664,-1.3623834,0.2137
4,2,177500,26,0.87213993,-2.44752,-0.16336207,0.2156
4,2,178000,26,0.91287345,-1.5926126,0.37173417,0.2179
4,2,178500,26,0.9620078,-0.6760605,1.4123856,0.2205
4,2,179000,26,0.9608985,-0.10762632,1.2006384,0.2236
4,2,179500,26,0.91570705,2.129977,0.7514043,0.227
4,2,180000,26,0.800267,1.1353205,0.35835642,0.2306
4,2,180500,26,0.60817885,-0.15597029,0.3955506,0.2343
4,2,181000,26,0.42907956,0.12292172,0.51427484,0.2384
4,2,181500,27,0.27232388,1.0245985,0.41873705,0.2424
4,2,182000,27,0.10045224,2.0780704,0.16295609,0.2461
4,2,182500,27,0.05050355,0.032771435,0.0823371,0.2495
4,2,183000,27,0.04367899,0.31783924,-0.204802,0.2525
4,2,183500,27,0.08103537,0.2751446,-0.17328922,0.2547
4,2,184000,27,0.122653,-0.045205906,0.46948907,0.2563
4,2,184500,27,0.25596786,0.5839426,0.9796355,0.2571
4,2,185000,27,0.42557973,0.6702859,0.7594744,0.2569
4,2,185500,27,0.47093934,0.26304218,0.5138278,0.2561
4,2,186000,27,0.5005526,-0.24739897,0.18578215,0.2547
4,2,186500,28,0.5066491,-0.20021589,0.0276939,0.2527
4,2,187000,28,0.47147903,-0.4165794,0.13768849,0.2501
4,2,187500,28,0.47147903,0.7464914,0.06787325,0.2471
4,2,188000,28,0.46362868,1.2619662,-0.0406632,0.2436
4,2,188500,28,0.469278,0.5157647,-0.67592984,0.2399
4,2,189000,28,0.47147903,0.92419285,-0.636082,0.2365
4,2,189500,28,0.47674403,0.5780112,-0.6598725,0.2334
4,2,190000,28,0.4895685,0.87985796,-2.0699043,0.2305
4,2,190500,28,0.49559632,0.8345407,-2.6860442,0.2279
4,2,191000,28,0.4819138,0.0406909,-1.9172667,0.2257
4,2,191500,29,0.4571731,0.1708991,-1.2357212,0.2238
4,2,192000,29,0.43028173,0.9311253,-1.0553828,0.2225
4,2,192500,29,0.36358902,2.508579,-1.4474363,0.2219
4,2,193000,29,0.31480673,1.5244646,-1.3895841,0.2218
4,2,193500,29,0.27096397,-0.40525714,-1.2727199,0.2224
4,2,194000,29,0.22348644,-0.7200899,-1.1495644,0.2238
4,2,194500,29,0.19041364,0.16111374,-0.99636966,0.2259
4,2,195000,29,0.19295083,-1.0114791,1.2978896,0.2289
4,2,195500,29,0.27088094,-0.44783896,3.0762956,0.2325
4,2,196000,29,0.46464592,0.47862548,2.8626106,0.2367
4,2,196500,29,0.638609,0.90487593,2.3672402,0.2411
4,2,197000,29,0.69159454,0.6990545,1.8032093,0.2457
4,2,197500,29,0.6820628,0.07231705,1.2105011,0.2506
4,2,198000,29,0.6334609,-0.18488456,0.78159285,0.2559
4,2,198500,29,0.56264436,0.41263777,0.5911873,0.2615
4,2,199000,29,0.4726224,0.7827329,0.5674488,0.2676
4,2,199500,29,0.37990367,0.7400195,0.54409105,0.2737
4,2,200000,29,0.34118947,0.30802098,0.52533305,0.2802
4,3,200500,30,0.32991034,0.68452686,-0.05114684,0.2872
4,3,201000,30,0.33057246,2.3617282,-1.5031892,0.2946
4,3,201500,30,0.37301546,4.084261,-1.8922837,0.3023
4,3,202000,30,0.44802067,-0.40790322,-1.163648,0.3102
4,3,202500,30,0.4815753,-5.497599,-0.50277406,0.3184
4,3,203000,30,0.5178406,-5.0304494,-0.023114117,0.3269
4,3,203500,30,0.5626083,-3.6543193,1.09905,0.3359
4,3,204000,30,0.65170366,-3.38666,1.0551376,0.3451
4,3,204500,31,0.67052287,-5.0949473,0.86422294,0.3547
4,3,205000,31,0.6799328,-4.466908,0.7238452,0.3647
4,3,205500,31,0.6533217,-3.480533,0.65858585,0.3748
4,3,206000,31,0.585973,-2.5548768,0.5368076,0.3849
4,3,206500,31,0.5190603,-0.8519008,0.45578012,0.3949
4,3,207000,31,0.45321015,-1.5447294,0.37016866,0.405
4,3,207500,31,0.393506,-2.363005,0.3063167,0.4147
4,3,208000,31,0.36004722,-2.0105536,0.27022466,0.4236
4,3,208500,32,0.3491523,-1.3418406,-0.19375548,0.4317
4,3,209000,32,0.38124844,-0.8688207,-0.6099034,0.4389
4,3,209500,32,0.41616437,-0.37825578,-0.6807902,0.4451
4,3,210000,32,0.48160297,0.54520065,-0.54129565,0.45
4,3,210500,32,0.5274713,0.98223287,-0.47569025,0.4536
4,3,211000,32,0.5714499,-0.080328844,-0.075483285,0.4558
4,3,211500,32,0.69380397,0.40244353,0.28161025,0.4567
4,3,212000,32,0.7359675,-2.434736,0.23195311,0.4559
4,3,212500,32,0.72623473,-3.5910482,0.10214736,0.4536
4,3,213000,32,0.6999094,-2.0607822,0.13197672,0.4499
4,3,213500,32,0.7025623,-0.6102185,0.054684006,0.4452
4,3,214000,32,0.70376813,0.5975114,0.04732267,0.4396
4,3,214500,32,0.64428777,0.23313151,0.08235606,0.4335
4,3,215000,32,0.5236401,1.668613,-0.43248025,0.4272
4,3,215500,32,0.33670557,1.4168493,-0.42268145,0.4209
4,3,216000,32,0.17734592,-0.81251025,-0.26777357,0.4147
4,3,216500,32,0.118335836,0.37061056,-0.1720619,0.4089
4,3,217000,32,0.09569961,0.85856235,-0.09236093,0.4037
4,3,217500,32,0.12999098,1.1445748,0.4477333,0.3991
4,3,218000,32,0.19902195,1.3771768,0.079494044,0.3955
4,3,218500,33,0.24292839,-2.368095,-0.0916676,0.3929
4,3,219000,33,0.2193566,-3.2635067,-0.05082994,0.3913
4,3,219500,33,0.22672856,4.690497,0.017350035,0.3909
4,3,220000,33,0.23477596,0.10079892,0.21027617,0.3915
4,3,220500,33,0.4066037,-2.412773,0.6932066,0.393
4,3,221000,33,0.47717863,-2.5071392,0.58020294,0.3951
4,3,221500,33,0.5089624,-2.0667372,0.4255816,0.3975
4,3,222000,33,0.52344686,-1.2648408,0.3412506,0.4
4,3,222500,34,0.5224156,-0.49498913,0.25545734,0.4021
4,3,223000,34,0.46053818,0.32083312,0.23270917,0.4041
4,3,223500,34,0.34626314,0.98884106,0.21207951,0.4056
4,3,224000,34,0.25774604,2.0621188,-0.26386923,0.4068
4,3,224500,34,0.12100443,2.5923607,-1.1939495,0.4075
4,3,225000,34,0.09294548,4.095339,-2.7604396,0.4078
4,4,225500,34,0.12336319,-0.7380297,-1.6197424,0.4073
4,4,226000,34,0.15463756,-2.6320646,-1.4949486,0.4061
4,4,226500,34,0.22834675,-4.2250986,0.38454,0.4042
4,4,227000,34,0.34688443,-1.1913661,0.3847673,0.4019
4,4,227500,34,0.44884053,-0.061275132,0.3615187,0.3991
4,4,228000,35,0.53140897,1.4072849,0.36469352,0.3963
4,4,228500,35,0.5532112,2.2030146,0.18351425,0.3937
4,4,229000,35,0.5178406,1.7348169,-0.8945482,0.3915
4,4,229500,35,0.47305533,2.3477035,-0.037863635,0.3898
4,4,230000,35,0.4323291,2.8077843,-0.48675925,0.3889
4,4,230500,35,0.41247112,-0.32221323,0.32550982,0.3886
4,4,231000,35,0.38001227,-0.6647289,0.427968,0.3888
4,4,231500,35,0.35471696,0.54865986,0.34475952,0.3896
4,4,232000,35,0.32686698,0.98571086,0.21399024,0.3909
4,4,232500,35,0.2713702,1.3881652,0.20018238,0.3925
4,4,233000,35,0.18339135,1.7086756,-1.1558504,0.3944
4,4,233500,35,0.08940651,0.50816953,-1.4779202,0.3967
4,4,234000,36,-0.008875175,0.11448526,-2.167076,0.3993
4,4,234500,36,-0.049921896,-0.15953758,-1.9063939,0.402
4,4,235000,36,-0.05175481,-1.9054668,-1.2244946,0.4047
4,4,235500,36,0.014583835,-3.1878886,1.6936014,0.4073
4,4,236000,36,0.2087673,-0.5169615,1.9585321,0.4097
4,4,236500,36,0.30276215,0.08982447,1.5300497,0.4117
4,4,237000,36,0.41238227,0.59481364,1.1719518,0.4135
4,4,237500,36,0.41694978,1.1230818,0.16117258,0.4149
4,4,238000,37,0.39715362,1.19901,0.09479479,0.416
4,4,238500,37,0.32256675,1.3802364,-0.894121,0.417
4,4,239000,37,0.22402903,0.41612047,0.09261034,0.4178
4,4,239500,37,0.16393103,0.42127165,0.602933,0.4185
4,4,240000,37,0.18901737,1.1103166,0.567131,0.4191
4,4,240500,37,0.14498596,0.50443774,0.40881893,0.4198
4,4,241000,37,0.15243888,-1.8987881,0.36453274,0.4205
4,4,241500,37,0.14095014,-2.9209065,-0.049975246,0.4211
4,4,242000,38,0.25080493,-0.6431466,-0.10110133,0.4216
4,4,242500,38,0.36030167,0.019493995,-0.06289545,0.4221
4,4,243000,38,0.40261143,-0.18131728,-0.9671522,0.4227
4,4,243500,38,0.39319503,-0.5223336,-1.7558248,0.4233
4,4,244000,38,0.35480654,-0.1772142,-1.6775023,0.4238
4,4,244500,38,0.36687517,-4.1574426,1.3755512,0.4244
4,4,245000,38,0.52721554,-2.6403883,1.5833398,0.4248
4,4,245500,38,0.52721554,-1.2857652,1.2237505,0.4251
4,4,246000,39,0.5020521,0.59040505,0.8733077,0.4251
4,4,246500,39,0.46246716,0.43988827,0.7153061,0.4246
4,4,247000,39,0.4281782,0.69043,0.6561785,0.4236
4,4,247500,39,0.391469,0.85000366,0.64591485,0.4221
4,4,248000,39,0.36448455,0.7095542,0.54551476,0.4202
4,4,248500,39,0.34638283,0.55541843,0.2843153,0.4181
4,4,249000,39,0.33034903,0.69999915,0.25571206,0.4159
4,4,249500,39,0.33674428,0.89907146,0.3564909,0.4137
4,4,250000,39,0.32864594,0.44508642,0.33087668,0.4116
4,5,250500,39,0.35339388,0.7530666,0.24102558,0.4097
4,5,251000,39,0.36206087,0.40036613,-0.16727136,0.4079
4,5,251500,40,0.36982927,-2.3247378,-0.46548703,0.4063
4,5,252000,40,0.40464178,-2.9980614,-0.31136498,0.4048
4,5,252500,40,0.45870638,1.2217954,0.18123497,0.4037
4,5,253000,40,0.50580895,0.6835398,0.2093494,0.4029
4,5,253500,40,0.52088976,-0.91041553,0.037083857,0.4026
4,5,254000,40,0.49741402,1.295665,-0.034707487,0.4026
4,5,254500,40,0.45026433,3.085788,0.38252625,0.403
4,5,255000,40,0.36358902,0.54836845,0.33045647,0.4039
4,5,255500,40,0.27905247,-0.18550967,0.1477035,0.4051
4,5,256000,40,0.17062595,3.9308584,0.15379578,0.4067
4,5,256500,40,0.069401704,7.1454883,0.2072519,0.4086
4,5,257000,40,-0.011241774,6.3372097,0.07347297,0.4107
4,5,257500,40,-0.061264943,1.2875669,-0.11037165,0.413
4,5,258000,40,-0.055042986,-2.5742078,0.020495096,0.4153
4,5,258500,40,-0.01299486,-4.248453,-0.27422273,0.4177
4,5,259000,41,0.034910727,-4.824976,-0.2457844,0.4201
4,5,259500,41,0.17633694,-4.7522388,0.6894047,0.4226
4,5,260000,41,0.27202636,-4.759698,0.73549837,0.425
4,5,260500,41,0.31892344,-3.8440857,0.6905626,0.4271
4,5,261000,41,0.379214,-1.4363525,0.5114271,0.4288
4,5,261500,41,0.37342903,9.8133745,0.11708218,0.4307
4,5,262000,41,0.38124844,13.6092415,0.061069258,0.4325
4,5,262500,41,0.3378621,5.953475,0.05322382,0.4345
4,5,263000,41,0.2864192,-0.60159874,0.09217001,0.4365
4,5,263500,41,0.22538467,-3.7262712,-0.025316069,0.4385
4,5,264000,41,0.1565986,-4.0035133,-0.06259081,0.4405
4,5,264500,42,0.1029246,-3.7566848,-0.053965665,0.4427
4,5,265000,42,0.08839877,-3.6757653,-0.038591977,0.445
4,5,265500,42,0.12897108,-3.0646741,-0.13692172,0.4473
4,5,266000,42,0.098470755,-2.818085,-0.024540747,0.4498
4,5,266500,42,0.11587692,-1.7705586,-0.2649635,0.4521
4,5,267000,42,0.12100443,-1.7843765,-0.3529917,0.4541
4,5,267500,42,0.114283,-0.5869254,-0.45417702,0.4558
4,5,268000,42,0.107082725,0.041757792,-1.1909317,0.4571
4,5,268500,42,0.114178225,1.0738448,-2.695729,0.4581
4,5,269000,42,0.12897108,-1.4200671,-0.16323571,0.4587
4,5,269500,43,0.21832141,-0.0686024,0.51700467,0.4589
4,5,270000,43,0.3356695,1.1534389,0.83440614,0.4587
4,5,270500,43,0.41944003,2.4308274,1.1728741,0.4581
4,5,271000,43,0.4387138,0.49354792,0.4793351,0.4571
4,5,271500,43,0.45765626,-3.0742855,0.15468782,0.4555
4,5,272000,43,0.4558274,-2.2046392,0.38794446,0.4534
4,5,272500,43,0.40492213,1.8239567,0.2722022,0.4508
4,5,273000,43,0.37961954,6.7082257,0.15677977,0.4479
4,5,273500,43,0.41446406,6.5614595,0.21592695,0.4447
4,5,274000,43,0.35480654,1.2499201,0.19947621,0.4412
4,5,274500,43,0.37918597,0.22183277,0.16560479,0.4376
4,5,275000,43,0.31265032,-0.87278277,0.1646824,0.4341
4,6,275500,43,0.24615796,-0.5941258,0.14552313,0.4308
4,6,276000,43,0.18095432,-0.6533079,0.123614796,0.4279
4,6,276500,43,0.121898435,0.3206075,0.08274329,0.4254
4,6,277000,43,0.08157352,0.08710788,0.08783993,0.4232
4,6,277500,43,0.08157352,-0.63215333,0.076606646,0.4213
4,6,278000,44,0.0957281,-0.019938823,0.04200221,0.4199
4,6,278500,44,0.13797697,0.04943286,0.041825376,0.419
4,6,279000,44,0.17620999,0.13122188,-0.08631417,0.4185
4,6,279500,44,0.20050792,1.5955565,-0.85304755,0.4186
4,6,280000,44,0.22367324,0.8683054,-1.2906413,0.4191
4,6,280500,44,0.26477775,-0.41089714,-1.3397951,0.4199
4,6,281000,44,0.2945401,-0.049797785,-0.71850145,0.4209
4,6,281500,44,0.33733517,-0.3100074,-0.9321976,0.4219
4,6,282000,44,0.37650582,0.42295894,-0.92661715,0.4227
4,6,282500,44,0.39512187,-0.63882726,-0.39083895,0.4235
4,6,283000,44,0.43584707,-0.43084383,0.24336614,0.4239
4,6,283500,44,0.4915845,-0.17582771,0.31583273,0.4239
4,6,284000,45,0.5226218,0.16556463,0.5837545,0.4232
4,6,284500,45,0.49685705,0.8020921,0.5578887,0.4219
4,6,285000,45,0.41805452,-0.0031740004,0.42313135,0.4197
4,6,285500,45,0.3161053,0.1271376,0.3282589,0.4167
4,6,286000,45,0.2350592,0.6106056,0.358418,0.4127
4,6,286500,45,0.21879272,0.18334934,0.18224666,0.4079
4,6,287000,45,0.26043308,0.18843001,0.031675562,0.4021
4,6,287500,45,0.31125394,0.8019511,-1.4816328,0.3951
4,6,288000,46,0.43404457,0.44771373,-0.45732442,0.3873
4,6,288500,46,0.55123913,0.65470076,-0.22680344,0.3787
4,6,289000,46,0.6175642,0.29067805,-0.45388523,0.3697
4,6,289500,46,0.6143803,0.13396196,-1.4191476,0.3607
4,6,290000,46,0.55887777,-0.48760548,-0.7949068,0.3515
4,6,290500,46,0.52049035,-0.89187413,0.35100967,0.3426
4,6,291000,46,0.49782163,-0.18938714,0.42735228,0.3339
4,6,291500,46,0.4885411,0.09937013,0.42836046,0.326
4,6,292000,46,0.46230805,0.14471552,0.28951696,0.3189
4,6,292500,47,0.33137313,0.2807094,-1.4853766,0.3127
4,6,293000,47,0.2063045,-0.32005125,-1.4477661,0.3074
4,6,293500,47,0.098928444,0.601826,-0.8578903,0.303
4,6,294000,47,0.04280089,-2.1414855,1.1324091,0.2995
4,6,294500,47,0.061807312,0.3015115,1.0591316,0.297
4,6,295000,47,0.14511473,1.1828514,0.61302537,0.2954
4,6,295500,47,0.15303446,-0.07575577,0.29348025,0.2945
4,6,296000,47,0.15303446,1.506929,0.39687455,0.2943
4,6,296500,47,0.15303446,2.8431423,-1.3316287,0.2945
4,6,297000,47,0.18716927,-0.40133268,-1.2940767,0.2949
4,6,297500,47,0.24437802,-0.7765601,-2.0343797,0.2952
4,6,298000,48,0.3112762,0.78331095,-0.5819136,0.2954
4,6,298500,48,0.41014853,-1.3527775,1.6421844,0.2953
4,6,299000,48,0.5322351,-1.2981309,1.2861209,0.2763
4,6,299500,48,0.48992178,-0.6420609,0.59479606,0.2571
4,6,300000,48,0.43565363,-0.13836418,-1.7889571,0.2377
4,7,300500,48,0.24702765,1.5226693,-2.0541286,0.2181
4,7,301000,48,0.15673557,-0.054803263,-1.7117146,0.1985
4,7,301500,48,0.09974619,-1.2574196,0.57459533,0.1786
4,7,302000,48,0.16176997,6.2710905,2.7660506,0.1586
5,0,500,1,-0.37657896,-0.32253754,-0.67688584,0.1604
5,0,1000,1,-0.49595544,-1.9833077,-1.2091267,0.183
5,0,1500,1,-0.5778652,-1.0021403,-1.8969724,0.2064
5,0,2000,1,-0.64267343,0.21053872,-2.012022,0.2307
5,0,2500,1,-0.666344,0.37677696,-1.6864094,0.2559
5,0,3000,1,-0.6244703,0.5288777,-1.4039097,0.2821
5,0,3500,1,-0.57471627,0.8381174,-1.1698073,0.3091
5,0,4000,1,-0.5070003,0.8406601,1.0370257,0.3371
5,0,4500,1,-0.36383373,0.76077926,3.8704193,0.3472
5,0,5000,1,-0.14280671,0.29684442,3.307391,0.3575
5,0,5500,2,-0.12396949,-0.36542484,2.6778107,0.3683
5,0,6000,2,-0.13687953,-0.14111836,2.193197,0.3797
5,0,6500,2,-0.13365397,0.55350083,1.7746665,0.3911
5,0,7000,2,-0.38292262,-0.0075073806,1.2578291,0.4029
5,0,7500,2,-0.49623808,0.14499752,0.78859466,0.4149
5,0,8000,2,-0.5717868,0.040592197,0.30923474,0.4263
5,0,8500,2,-0.6105124,-0.19520101,-0.048054304,0.4377
5,0,9000,2,-0.5065016,-0.46928966,-1.0154933,0.4489
5,0,9500,2,-0.44551593,0.046514172,-1.6526718,0.4596
5,0,10000,2,-0.38447857,0.37893894,-1.7097855,0.4699
5,0,10500,2,-0.31860775,0.8201729,-0.55443704,0.4795
5,0,11000,2,-0.22572984,0.40396634,1.8689524,0.4881
5,0,11500,2,-0.01901706,0.15648897,1.6141953,0.496
5,0,12000,3,-0.020073235,-0.6465634,1.1554759,0.5029
5,0,12500,3,-0.054694213,-0.86170965,0.31608135,0.5099
5,0,13000,3,-0.050899923,-0.20135328,-0.31227687,0.5157
5,0,13500,3,-0.14881656,0.41504416,-0.46118674,0.5205
5,0,14000,3,-0.26448378,1.6073864,-0.9709973,0.5243
5,0,14500,3,-0.36104438,1.2610825,-1.6883872,0.5272
5,0,15000,3,-0.43916205,0.74896824,-2.0515418,0.5291
5,0,15500,3,-0.43916205,0.27219772,-2.306897,0.5309
5,0,16000,3,-0.44401264,1.1998701,-2.1841447,0.5321
5,0,16500,3,-0.46132693,2.1918051,-1.8144926,0.5326
5,0,17000,3,-0.47537243,1.8165026,-1.6302776,0.5327
5,0,17500,3,-0.42058447,0.9250106,-1.5605645,0.5323
5,0,18000,3,-0.37575138,0.38194692,0.10837504,0.5317
5,0,18500,3,-0.25613225,0.29447562,3.7313218,0.5311
5,0,19000,3,-0.13420178,-0.31581655,3.0572119,0.5305
5,0,19500,4,-0.06023324,-0.70765847,1.933004,0.53
5,0,20000,4,0.019846462,-1.2294877,0.9502368,0.5297
5,0,20500,4,-0.118473195,-1.2316356,0.75413936,0.5295
5,0,21000,4,-0.23712412,-0.92702997,0.1029688,0.5294
5,0,21500,4,-0.3343483,-0.27492204,-1.0441837,0.5298
5,0,22000,4,-0.40810615,0.120256834,1.7380977,0.5307
5,0,22500,4,-0.23972917,-0.31819475,1.7070584,0.5317
5,0,23000,5,-0.25464866,-1.009477,1.4013155,0.5331
5,0,23500,5,-0.28539005,-1.7488165,1.0787458,0.5345
5,0,24000,5,-0.32293528,2.0432765,-0.050898805,0.5359
5,0,24500,5,-0.42679557,2.7001314,0.0708692,0.5367
5,0,25000,5,-0.4523158,1.2637334,-0.9417075,0.5376
5,0,25500,5,-0.44344765,0.065741785,-1.7916586,0.5378
5,0,26000,5,-0.4069477,-0.44371706,-2.038654,0.5371
5,0,26500,5,-0.38292262,-0.9827999,-1.9630821,0.5351
5,0,27000,6,-0.33507237,-0.36627552,-2.2121806,0.5317
5,0,27500,6,-0.2674026,0.98918885,-2.2512696,0.5281
5,0,28000,6,-0.19381091,1.5960829,-2.0132875,0.5231
5,0,28500,6,-0.13370074,2.8695514,-1.6599109,0.5165
5,0,29000,6,-0.04026153,2.8241403,-1.4066561,0.5079
5,0,29500,6,0.014467547,2.7191286,-1.1730306,0.4991
5,0,30000,6,0.009321503,1.4010197,-0.9791459,0.4885
5,0,30500,6,-0.03016921,-0.017123535,-0.81791055,0.4758
5,0,31000,6,-0.090882555,0.04239229,-0.6590449,0.4611
5,0,31500,6,-0.21833737,0.3839068,2.719231,0.4447
5,0,32000,6,-0.16536385,0.37026277,2.1910567,0.4287
5,0,32500,6,-0.23512219,-0.060086038,1.9158529,0.4107
5,0,33000,6,-0.33937854,-0.6016551,3.286024,0.3915
5,0,33500,6,-0.51183563,-1.1806595,3.2880728,0.3714
5,0,34000,7,-0.3936213,-0.6402702,2.6983032,0.3506
5,0,34500,7,-0.51121825,-0.09432068,2.2265887,0.3311
5,0,35000,7,-0.6718405,0.80616695,1.7967532,0.3099
5,0,35500,7,-0.6718405,0.084334895,1.3440288,0.2883
5,0,36000,7,-0.6752278,-0.48616257,1.1122775,0.2664
5,0,36500,7,-0.6491321,-0.6551503,0.7288642,0.245
5,0,37000,7,-0.5588783,-0.012249659,-0.12549525,0.2228
5,0,37500,7,-0.4569008,0.6720907,-0.21328825,0.2023
5,0,38000,7,-0.3479524,0.5429353,-0.34305695,0.1833
5,0,38500,7,-0.21580595,0.9946549,-0.5753664,0.1658
5,0,39000,7,-0.06195042,0.3854531,-1.0849458,0.1501
5,0,39500,7,0.10340438,-0.6743074,-1.5973508,0.1347
5,0,40000,7,0.24341886,-0.3710319,-1.9197553,0.1216
5,0,40500,7,0.38814178,0.15234828,1.0119411,0.1105
5,0,41000,7,0.56655145,0.39889973,1.6958021,0.1018
5,0,41500,7,0.5566706,0.03576532,1.3121629,0.0955
5,0,42000,8,0.4259974,-0.036252446,1.0605016,0.0897
5,0,42500,8,0.14405356,2.1546988,0.8494183,0.0863
5,0,43000,8,-0.19079347,1.2779273,0.6302348,0.0853
5,0,43500,8,-0.7684393,-0.056697354,0.1217773,0.086
5,0,44000,8,-0.81460106,-0.6568752,-0.4929735,0.0885
5,0,44500,8,-0.7873522,-0.77459085,-0.56342226,0.0926
5,0,45000,8,-0.51183563,-1.3478566,-1.8872932,0.0974
5,0,45500,8,-0.5289172,-1.2315838,-0.9979506,0.1035
5,0,46000,8,-0.5375494,-1.1643835,0.92650384,0.111
5,0,46500,8,-0.5413659,-1.26924,1.1911521,0.1197
5,0,47000,8,-0.5413659,-0.838003,0.98074085,0.1283
5,0,47500,9,-0.7358192,0.27546892,0.8031119,0.1373
5,0,48000,9,-0.989415,0.25127813,0.639065,0.1475
5,0,48500,9,-1.2027786,-0.2007282,0.4868006,0.158
5,0,49000,9,-1.2730114,-0.32462433,0.3776718,0.1689
5,0,49500,9,-1.388351,0.045588274,0.1455812,0.1797
5,0,50000,9,-1.3969431,0.39929456,-0.3317863,0.1905
5,0,50500,9,-1.4208969,0.1480995,-0.68706685,0.2007
5,0,51000,10,-1.4135045,0.33805853,-0.5408816,0.2107
5,0,51500,10,-1.4065148,0.058513217,-0.5777192,0.22
5,0,52000,10,-1.3717965,0.85345346,-1.2419813,0.2281
5,0,52500,10,-1.3543564,1.6103568,-2.3523843,0.2349
5,0,53000,10,-1.2865386,0.94308203,-1.7792751,0.24
5,0,53500,10,-1.1965996,0.78271407,1.3414072,0.2435
5,0,54000,10,-1.0821387,0.6260403,1.5284532,0.2451
5,0,54500,11,-0.72062033,0.33599994,1.2510711,0.246
5,0,55000,11,-0.7372564,0.16228403,0.96051794,0.2452
5,0,55500,11,-0.75623167,-0.13705288,0.6458734,0.2426
5,0,56000,11,-0.8043864,-0.6703735,0.2028515,0.2385
5,0,56500,11,-0.85731316,-0.6907526,-0.16807266,0.2332
5,0,57000,11,-0.8691816,-0.8875736,-0.29805902,0.2269
5,0,57500,11,-0.8043864,-0.79607445,-0.68541,0.2199
5,0,58000,11,-0.74105924,0.62278324,-1.1591703,0.2127
5,0,58500,11,-0.6920866,1.2207285,-1.4648526,0.2054
5,0,59000,11,-0.63862675,0.83213437,-2.0362487,0.1977
5,0,59500,11,-0.5669003,-0.19138934,-2.0123396,0.1902
5,0,60000,11,-0.5175362,-0.6079108,0.741225,0.1829
5,0,60500,11,-0.43711337,-0.018688628,1.1439018,0.176
5,0,61000,12,-0.32512817,0.16263653,0.8970699,0.1692
5,0,61500,12,-0.46483982,0.07391974,0.5285178,0.163
5,0,62000,12,-0.54075664,0.21080661,0.4091268,0.1573
5,0,62500,12,-0.6160071,0.23225732,-0.46714565,0.1522
5,0,63000,12,-0.81460106,0.535232,-0.9048906,0.1475
5,0,63500,12,-0.8568674,1.1347989,-1.3656938,0.1431
5,0,64000,12,-0.8776788,2.0008545,-1.5808583,0.1387
5,0,64500,13,-0.82981944,1.9914075,-1.6097685,0.1341
5,0,65000,13,-0.7991633,0.5557568,-1.507648,0.1291
5,0,65500,13,-0.71946466,-0.6247273,2.1318858,0.1231
5,0,66000,13,-0.5588783,-0.62403643,1.9861543,0.1166
5,0,66500,13,-0.43287137,-0.8577617,1.5022378,0.1093
5,0,67000,13,-0.3562571,-0.7376114,0.19222577,0.1011
5,0,67500,13,-0.35979035,-0.63920796,-0.30299053,0.0923
5,0,68000,14,-0.45145482,-0.19286513,-0.4684293,0.0828
5,0,68500,14,-0.48636678,-0.0695283,-1.4261346,0.0727
5,0,69000,14,-0.54171973,0.7531465,-1.3359768,0.0617
5,0,69500,14,-0.5913937,1.5306875,-1.5775087,0.0502
5,0,70000,14,-0.63862675,0.68416023,-1.80321,0.0383
5,0,70500,14,-0.6984821,0.0042002657,-1.773036,0.0263
5,0,71000,14,-0.72953725,-0.6105193,-1.6336471,0.014
5,0,71500,14,-0.7524665,0.6302374,-1.5083022,0.0018
5,0,72000,14,-0.6731109,1.6238269,-1.5891715,-0.0101
5,0,72500,14,-0.6169154,0.864865,-1.2075717,-0.0213
5,0,73000,14,-0.5451402,-0.16104157,3.4071698,-0.0318
5,0,73500,14,-0.40810615,-0.12662832,3.7611423,-0.0412
5,0,74000,15,-0.2463899,0.11711725,3.054199,-0.0495
5,0,74500,15,-0.24949567,-0.13880597,2.3680727,-0.0566
5,0,75000,15,-0.28341892,-0.3492193,1.708489,-0.0625
5,0,75500,15,-0.32512817,-0.57886964,0.9232426,-0.0672
5,0,76000,15,-0.39386222,-0.9175783,0.7679242,-0.0702
5,0,76500,15,-0.3658876,-0.8656247,0.31325406,-0.0717
5,0,77000,15,-0.34158942,-0.15185781,-1.1182339,-0.0719
5,0,77500,15,-0.31844246,0.24607055,-0.9213045,-0.0708
5,0,78000,15,-0.24553643,-0.21021275,-1.1112257,-0.0689
5,0,78500,15,-0.14015582,-0.36427334,-0.4146656,-0.0662
5,0,79000,15,-0.04084856,0.094853446,-1.2757316,-0.0631
5,0,79500,15,0.057718605,0.43831375,-1.5363212,-0.0598
5,0,80000,15,0.132555,0.59750205,-1.7636198,-0.0563
5,0,80500,15,0.15379672,1.013765,-1.6868678,-0.0528
5,0,81000,15,0.08940651,0.705954,-1.5484911,-0.0497
5,0,81500,15,-0.16213794,-0.16393206,2.1064625,-0.0469
5,0,82000,15,-0.26868808,-0.6700351,2.9166293,-0.0453
5,0,82500,16,-0.34125507,-0.8858205,2.6082726,-0.0443
5,0,83000,16,-0.43298805,0.48978323,2.1153548,-0.0443
5,0,83500,16,-0.68874425,1.5803051,1.7019355,-0.0457
5,0,84000,16,-0.8059234,1.3877611,1.4035673,-0.0485
5,0,84500,16,-0.8943625,0.67359,1.109501,-0.0525
5,0,85000,16,-0.9320241,-0.16788945,0.775474,-0.0581
5,0,85500,16,-0.943599,-0.68724173,-0.17141819,-0.0656
5,0,86000,17,-0.92820066,-0.6659132,-0.17270242,-0.0742
5,0,86500,17,-0.8692342,-0.38267845,-0.44264492,-0.0837
5,0,87000,17,-0.84602576,-0.16466056,-0.5288248,-0.0939
5,0,87500,17,-0.8499194,0.6497705,-1.0897839,-0.1048
5,0,88000,17,-0.7019576,1.0915873,-1.8242601,-0.1164
5,0,88500,17,-0.56663543,1.0441786,-1.7734416,-0.1287
5,0,89000,18,-0.41642964,-0.017852033,-1.7005405,-0.1407
5,0,89500,18,-0.25900868,-0.69069153,-1.8662677,-0.1521
5,0,90000,18,-0.14260389,-0.6129257,-1.4215734,-0.1631
5,0,90500,18,-0.3430176,-0.4793288,-1.2169299,-0.1736
5,0,91000,18,-0.52925473,-0.63547146,-0.05500653,-0.1833
5,0,91500,18,-0.8095007,-1.0581076,2.3430698,-0.1917
5,0,92000,18,-0.75710267,-0.77864224,2.3109915,-0.1989
5,0,92500,18,-0.7635,-0.7858473,1.7125117,-0.2049
5,0,93000,19,-1.035118,-1.3107502,0.494897,-0.2087
5,0,93500,19,-1.0946368,0.14428782,-0.050577533,-0.2108
5,0,94000,19,-1.1570828,1.1541533,-0.62846303,-0.2113
5,0,94500,19,-1.2522157,2.3079793,-0.58142686,-0.2088
5,0,95000,19,-1.2798299,1.713963,-1.468061,-0.2044
5,0,95500,19,-1.3211939,0.16699341,-1.9868801,-0.1978
5,0,96000,19,-1.2995664,-0.4601999,0.82487583,-0.189
5,0,96500,20,-1.2708973,-0.8053381,2.2488685,-0.1787
5,0,97000,20,-0.86230856,-0.9055181,1.7626544,-0.1666
5,0,97500,20,-0.8177387,-0.9115858,1.4530694,-0.1515
5,0,98000,20,-0.79044116,0.05322104,1.1097418,-0.1349
5,0,98500,20,-0.72062033,0.42836392,0.73619837,-0.1173
5,0,99000,20,-0.70041347,0.80084187,-0.09328682,-0.0992
5,0,99500,20,-0.6773231,0.6226328,-0.36421213,-0.0806
5,0,100000,20,-0.63862675,0.35819325,-1.7984405,-0.0619
5,0,100500,20,-0.64314246,-0.085498825,-1.5265718,-0.0431
5,0,101000,20,-0.5875631,-0.17846909,-1.2550097,-0.0246
5,0,101500,20,-0.5026206,-0.27914733,-1.5511656,-0.0067
5,0,102000,20,-0.39555243,1.2140546,-0.9604973,0.0091
5,0,102500,20,-0.3323039,1.9036777,-1.1279438,0.0239
5,0,103000,20,-0.3082156,1.6248938,-1.7608701,0.0377
5,0,103500,20,-0.29575208,0.4517416,-2.1526139,0.0503
5,0,104000,20,-0.2857025,-0.6397297,-1.928363,0.0617
5,0,104500,20,-0.40790555,-1.1514868,-1.6058081,0.0721
5,0,105000,20,-0.48820803,-0.809554,-1.3397615,0.0801
5,0,105500,20,-0.5627443,0.5046775,-1.118217,0.0871
5,0,106000,20,-0.6936725,0.72257787,-0.85705197,0.0939
5,0,106500,20,-0.7356896,0.33871183,3.5763493,0.1001
5,0,107000,20,-0.6983612,-0.53686595,3.924511,0.1059
5,0,107500,21,-0.54722035,-0.81841344,3.1245918,0.1114
5,0,108000,21,-0.66380787,-1.1133465,2.5841293,0.1165
5,0,108500,21,-0.71957827,-0.58714163,2.0582707,0.1214
5,0,109000,21,-0.7734056,-0.26918808,1.1905843,0.1263
5,0,109500,21,-0.8611282,0.31290895,0.61104226,0.1318
5,0,110000,21,-0.88922346,0.9478008,0.6937383,0.1375
5,0,110500,21,-0.9185965,0.89995503,0.24135065,0.1434
5,0,111000,22,-0.7921472,0.83279234,-1.2499524,0.1495
5,0,111500,22,-0.716463,0.7007794,-1.6840553,0.1557
5,0,112000,22,-0.63661385,-0.007432181,-2.5862765,0.162
5,0,112500,22,-0.5354943,-0.72293806,-2.0381947,0.1686
5,0,113000,22,-0.40824953,-1.0961399,-2.131263,0.175
5,0,113500,22,-0.3105483,0.7339518,-1.8392568,0.1807
5,0,114000,22,-0.22528882,1.2928685,-1.757159,0.1861
5,0,114500,22,-0.16289812,0.22128756,-1.33644,0.1913
5,0,115000,22,-0.16289812,-1.2665564,3.1653092,0.1961
5,0,115500,22,-0.04197528,-1.3853766,2.9220927,0.2007
5,0,116000,23,-0.09022647,-1.1359111,2.355038,0.2049
5,0,116500,23,-0.18923368,-1.1275545,1.9192723,0.2089
5,0,117000,23,-0.3055066,-1.0880466,1.0915344,0.2123
5,0,117500,23,-0.5956976,-0.9856199,0.93411756,0.2153
5,0,118000,23,-0.70101166,-0.8140566,0.49143767,0.2179
5,0,118500,23,-0.7941159,-0.6081364,0.49263465,0.2203
5,0,119000,23,-0.81830674,-0.6306634,0.57678795,0.2225
5,0,119500,23,-0.7888292,-0.48855957,0.27521595,0.2247
5,0,120000,23,-0.7510241,-0.031937867,0.1457633,0.2263
5,0,120500,24,-0.6718405,0.70147496,1.6587349,0.2276
5,0,121000,24,-0.44744173,0.50824475,1.4724021,0.2284
5,0,121500,24,-0.39797124,0.03831741,1.1429987,0.2285
5,0,122000,24,-0.43291104,0.06996706,0.85962206,0.2281
5,0,122500,24,-0.5877293,0.14000614,0.4509779,0.2273
5,0,123000,24,-0.73245823,0.34839377,-0.40698123,0.2266
5,0,123500,24,-0.8495791,0.22508515,-0.5711034,0.2261
5,0,124000,25,-0.84491473,0.06871217,-0.69504946,0.2257
5,0,124500,25,-0.8957909,0.1692024,-1.1870792,0.2255
5,0,125000,25,-0.9377544,0.13527326,-1.1369652,0.2254
5,0,125500,25,-0.9377544,-0.5450486,-0.4715513,0.2251
5,0,126000,25,-0.92542917,-0.54216284,0.4866445,0.2247
5,0,126500,25,-0.91376567,-0.111344,0.12687542,0.2239
5,0,127000,25,-0.9089414,-0.36530733,-0.40829435,0.2225
5,0,127500,26,-0.9850642,-0.3476495,-0.5550294,0.2207
5,0,128000,26,-1.0928129,-0.121980056,-0.927447,0.2186
5,0,128500,26,-1.1274756,0.82475066,-1.6478016,0.2161
5,0,129000,26,-1.1485553,2.7095265,-1.5896544,0.2137
5,0,129500,26,-1.2190156,1.5792241,-0.8285955,0.2109
5,0,130000,26,-1.1975132,0.99346113,-1.6373373,0.2076
5,0,130500,26,-1.1779804,0.61870366,-1.9275085,0.2034
5,0,131000,26,-1.0682468,-0.011398963,0.57865757,0.1981
5,0,131500,26,-0.97772455,-0.6587599,2.4531293,0.1917
5,0,132000,26,-0.87219036,-0.44870844,2.0069034,0.1842
5,0,132500,26,-0.71526086,-0.6109987,0.34055436,0.1761
5,0,133000,27,-0.7533626,-0.51253414,-0.21977651,0.1676
5,0,133500,27,-0.78158176,-0.5699115,-0.15427966,0.1587
5,0,134000,27,-0.7629649,0.31550333,-0.21498042,0.1495
5,0,134500,27,-0.7419359,1.97163,-0.8216987,0.1401
5,0,135000,27,-0.6839767,1.1524755,-0.33412892,0.1307
5,0,135500,27,-0.56468195,0.552636,-1.3373008,0.1217
5,0,136000,27,-0.42096907,0.44873363,-1.4524593,0.1137
5,0,136500,27,-0.4104431,-0.00057021243,-1.6773835,0.1065
5,0,137000,27,-0.4043149,-0.52795476,-1.5419058,0.1008
5,0,137500,27,-0.39555243,-0.7607306,-1.7156084,0.0968
5,0,138000,27,-0.44933054,-1.0573651,0.4891184,0.0946
5,0,138500,28,-0.473539,-0.91147774,-1.1731421,0.094
5,0,139000,28,-0.50288427,-0.95175654,1.4112499,0.095
5,0,139500,28,-0.55305785,0.008449046,3.2347674,0.0974
5,0,140000,28,-0.36717445,0.69665277,2.7758384,0.101
5,0,140500,28,-0.4380458,0.8871429,2.365703,0.1057
5,0,141000,28,-0.5155236,1.0588143,1.9102173,0.1115
5,0,141500,28,-0.5588783,0.9539202,1.5000998,0.1185
5,0,142000,28,-0.5727668,1.0204437,1.1529331,0.1266
5,0,142500,28,-0.5613133,0.3851006,0.5299686,0.1355
5,0,143000,28,-0.53449494,0.22140506,0.36822844,0.1447
5,0,143500,28,-0.45757377,-0.526103,-0.7862227,0.1542
5,0,144000,28,-0.40550882,-0.81658983,-1.1745775,0.1633
5,0,144500,28,-0.32323042,-0.8064567,1.0000134,0.1719
5,0,145000,28,-0.19715747,0.4726941,0.972034,0.1795
5,0,145500,29,-0.041720603,2.1357768,0.3382062,0.1861
5,0,146000,29,-0.11321518,1.2659564,-0.3960345,0.1919
5,0,146500,29,-0.20181343,0.08914767,-0.08275766,0.1971
5,0,147000,29,-0.36066294,-0.49544504,0.1621119,0.2017
5,0,147500,29,-0.59344965,-0.97011465,0.18464908,0.206
5,0,148000,29,-0.8241856,-1.010276,-0.21942721,0.2101
5,0,148500,29,-0.90185505,-1.2044885,-1.6261793,0.2139
5,0,149000,29,-0.989415,-0.88849485,-2.1534882,0.2173
5,0,149500,29,-0.9672993,0.8428409,-2.1915834,0.2204
5,0,150000,29,-0.95639086,1.3495033,-2.3766084,0.2231
5,1,150500,29,-0.94251245,0.29668933,-2.5945926,0.2254
5,1,151000,29,-0.9208447,-0.55474466,-2.2960286,0.2271
5,1,151500,29,-0.8995492,-0.70518625,-1.9135538,0.2283
5,1,152000,29,-0.85988843,-0.16513525,-1.594975,0.2286
5,1,152500,29,-0.7811865,0.026125664,-1.3307818,0.2281
5,1,153000,29,-0.71498454,-0.14364696,-1.110813,0.2265
5,1,153500,30,-0.64109826,-0.1554956,-0.92808664,0.2237
5,1,154000,30,-0.54722035,-0.59803617,-0.089228705,0.2209
5,1,154500,30,-0.41554877,0.23904409,3.608567,0.2167
5,1,155000,30,-0.29558104,0.5399179,3.811443,0.2105
5,1,155500,30,-0.22494999,0.7352866,3.0958374,0.2022
5,1,156000,30,-0.29892564,0.05532663,2.5085902,0.1917
5,1,156500,30,-0.3841377,-0.22237629,2.0350432,0.1793
5,1,157000,30,-0.48994178,-0.045215305,1.6992422,0.1648
5,1,157500,31,-0.6048411,0.15396507,1.1122102,0.1483
5,1,158000,31,-0.73581904,-0.05798515,0.34927404,0.1301
5,1,158500,31,-0.7564059,0.66146874,0.11894243,0.1101
5,1,159000,31,-0.7667996,0.49249512,-0.36276594,0.0891
5,1,159500,31,-0.7098864,-0.21291053,-0.6454863,0.0671
5,1,160000,31,-0.6951651,-0.20896256,-2.70848,0.0445
5,1,160500,31,-0.6509237,0.19583718,-2.9730952,0.0229
5,1,161000,31,-0.56468195,0.07862442,-2.2931547,0.0013
5,1,161500,31,-0.41217712,-0.46622056,1.6421514,-0.0214
5,1,162000,31,-0.27488846,-0.35507548,1.5192734,-0.0436
5,1,162500,31,-0.20621805,0.04212439,1.0123283,-0.0649
5,1,163000,31,-0.19875735,0.35169315,0.8945951,-0.0848
5,1,163500,31,-0.23876864,0.10154622,0.5414683,-0.103
5,1,164000,31,-0.31321055,-0.19624911,0.23861091,-0.1195
5,1,164500,31,-0.36960435,-0.35594496,-0.73917985,-0.1341
5,1,165000,31,-0.418553,0.4326174,-2.0907772,-0.1466
5,1,165500,31,-0.46367455,1.61336,-2.5741112,-0.1567
5,1,166000,31,-0.5270707,0.74690497,-2.3188348,-0.165
5,1,166500,31,-0.5334161,0.15106049,-1.9906834,-0.1709
5,1,167000,31,-0.51891184,-0.23478423,-1.6523523,-0.1747
5,1,167500,31,-0.47582182,-0.7235209,-1.3827573,-0.1763
5,1,168000,32,-0.4619898,-0.66186184,-1.1533805,-0.1775
5,1,168500,32,-0.42209804,-0.4138628,-0.9627404,-0.177
5,1,169000,32,-0.3617561,0.67781526,-0.8042153,-0.1749
5,1,169500,32,-0.27906013,1.605967,-0.6722832,-0.1715
5,1,170000,32,-0.12090683,1.199903,-0.55498475,-0.1671
5,1,170500,32,-0.15692471,0.4732863,-0.46722123,-0.1621
5,1,171000,32,-0.28467152,0.09364555,-0.3755309,-0.1571
5,1,171500,32,-0.5413659,-0.5972419,-0.32047686,-0.1517
5,1,172000,32,-0.6971675,-1.5868787,3.1018982,-0.1458
5,1,172500,32,-0.61988276,-1.3436501,3.3930213,-0.1397
5,1,173000,32,-0.5079448,-1.0906221,2.4766905,-0.1332
5,1,173500,33,-0.52369964,-1.0388095,2.0734088,-0.1257
5,1,174000,33,-0.56636995,-0.38412604,1.1118226,-0.1176
5,1,174500,33,-0.59151804,0.56816477,0.19136348,-0.1087
5,1,175000,33,-0.6105124,1.0433279,-1.549331,-0.0987
5,2,175500,33,-0.56115025,-0.0681841,-1.8250933,-0.0873
5,2,176000,33,-0.5234924,-0.7163581,-1.7789389,-0.0745
5,2,176500,33,-0.4609863,-0.3693023,0.13687436,-0.0621
5,2,177000,33,-0.35390875,0.26764816,3.2271354,-0.0485
5,2,177500,34,-0.12752442,-0.27510536,3.3036768,-0.0335
5,2,178000,34,-0.07451114,-0.2840212,2.7215517,-0.0173
5,2,178500,34,-0.1572852,-0.38950282,1.7070506,0.0004
5,2,179000,34,-0.28165445,0.12190653,-0.20693539,0.0193
5,2,179500,34,-0.45757377,0.22570084,-1.7318572,0.039
5,2,180000,34,-0.7130727,0.15018159,-1.6429425,0.0593
5,2,180500,35,-0.84070337,-0.26914108,-1.5801277,0.0801
5,2,181000,35,-0.9754723,-0.45386434,0.7050486,0.1007
5,2,181500,35,-0.93725175,-0.16776255,1.7746333,0.1201
5,2,182000,35,-0.8924556,0.047820766,1.3959299,0.1391
5,2,182500,35,-0.7941159,-0.07209919,0.87403136,0.1573
5,2,183000,35,-0.87739885,1.459981,0.38571042,0.1744
5,2,183500,35,-0.92471,1.4106406,-0.06868105,0.1905
5,2,184000,35,-0.9847795,1.4545243,-0.11957164,0.2072
5,2,184500,35,-1.0093067,0.66307145,-0.3702942,0.2223
5,2,185000,36,-1.0178578,-0.41946048,-2.6492102,0.2357
5,2,185500,36,-0.92340493,-0.6981927,-2.7565181,0.2471
5,2,186000,36,-0.86706644,-0.031947266,-2.3068101,0.2563
5,2,186500,36,-0.8108027,0.014239419,0.5769184,0.2642
5,2,187000,36,-0.71526086,-0.03571665,2.0379496,0.2698
5,2,187500,36,-0.5306417,-0.15202701,0.5973158,0.2733
5,2,188000,37,-0.5389052,-0.45406172,-0.5860044,0.2747
5,2,188500,37,-0.6105124,-0.48954657,-0.7456468,0.2746
5,2,189000,37,-0.7286375,-0.72659,-0.65133166,0.2741
5,2,189500,37,-0.8082627,-0.63993174,-0.6029652,0.2725
5,2,190000,37,-0.8943625,-0.52811927,-0.68442166,0.2701
5,2,190500,37,-1.0105938,-0.741174,0.18770047,0.267
5,2,191000,37,-1.0308429,-0.81133056,2.0005195,0.2633
5,2,191500,38,-1.0486017,-0.31376737,1.220844,0.2595
5,2,192000,38,-1.0589052,0.069797866,-0.27918193,0.2554
5,2,192500,38,-1.0714161,2.0869064,-0.67581254,0.2517
5,2,193000,38,-1.1188097,1.9066716,-0.5641993,0.2486
5,2,193500,38,-1.1441944,0.50114775,-0.40185717,0.2461
5,2,194000,38,-1.1654727,-0.20654206,-0.05251861,0.2439
5,2,194500,38,-1.1048474,-0.5524182,-0.5925259,0.2432
5,2,195000,38,-1.0495895,-0.8885747,-0.17593269,0.2439
5,2,195500,39,-0.9754723,-0.9436397,1.1334733,0.246
5,2,196000,39,-0.87370247,-0.9220151,2.0308862,0.2491
5,2,196500,39,-0.7389548,-0.6770616,2.1174805,0.253
5,2,197000,39,-0.6129964,-0.3992788,1.5902249,0.2575
5,2,197500,39,-0.5588783,-0.31500345,0.7442598,0.2626
5,2,198000,39,-0.5806319,0.14062184,-0.24417248,0.2675
5,2,198500,39,-0.57910955,0.8271618,-0.2128202,0.2727
5,2,199000,39,-0.56468195,1.8059182,-1.3939183,0.2782
5,2,199500,39,-0.59846413,0.7983979,-1.8677535,0.2845
5,2,200000,40,-0.63418686,0.50361055,-0.5521204,0.2911
5,3,200500,40,-0.6084278,0.50913304,1.6259954,0.2976
5,3,201000,40,-0.43298805,0.56995076,1.2553543,0.304
5,3,201500,40,-0.416218,0.34809768,0.95411634,0.3101
5,3,202000,40,-0.373042,0.06827977,-0.31689817,0.3155
5,3,202500,40,-0.3445697,-0.5410912,-0.6179353,0.3203
5,3,203000,40,-0.3445697,-0.5865259,-1.1309402,0.3244
5,3,203500,40,-0.35709754,-0.6417131,-1.767904,0.3277
5,3,204000,41,-0.3699924,-0.32110873,-2.1238322,0.3301
5,3,204500,41,-0.38287815,0.057060923,-2.0085573,0.3318
5,3,205000,41,-0.39540085,0.54527116,-1.8273734,0.333
5,3,205500,41,-0.38292262,0.21227771,-1.5619419,0.3335
5,3,206000,41,-0.36507916,0.37999174,-1.3016663,0.3327
5,3,206500,41,-0.3498574,-0.070317894,-1.0854974,0.3302
5,3,207000,41,-0.3356611,-0.38846412,-0.9059203,0.3259
5,3,207500,41,-0.31206727,-0.72942406,-0.75655586,0.3197
5,3,208000,42,-0.3275207,-0.15095071,-0.63233644,0.3119
5,3,208500,42,-0.36968258,-0.065016314,0.44066933,0.3026
5,3,209000,42,-0.39884368,0.051867448,1.3057482,0.2918
5,3,209500,42,-0.31860775,0.013492123,0.7622877,0.2795
5,3,210000,42,-0.30152366,0.077261426,-0.24792507,0.2657
5,3,210500,42,-0.34824112,0.05104965,-0.6926415,0.2506
5,3,211000,42,-0.41070706,0.24563815,-0.59728026,0.2341
5,3,211500,42,-0.5058775,0.519661,-0.6839291,0.2164
5,3,212000,42,-0.5576797,0.2134339,-0.5838439,0.1975
5,3,212500,42,-0.5305987,-0.32563013,1.5066333,0.1787
5,3,213000,42,-0.45192054,-0.12886082,4.211092,0.159
5,3,213500,42,-0.2923243,-0.29771224,3.8984072,0.1387
5,3,214000,43,-0.18843356,-0.42613444,3.2509484,0.118
5,3,214500,43,-0.22378455,-0.5234757,2.5530505,0.0972
5,3,215000,43,-0.30765283,-0.44712925,1.831224,0.0768
5,3,215500,43,-0.45145482,-0.35449737,-0.93717664,0.0569
5,3,216000,43,-0.5531328,-0.2406827,-2.4937181,0.0377
5,3,216500,43,-0.6413238,-0.22868367,-2.386784,0.0195
5,3,217000,43,-0.7289165,-0.040722128,-2.2168252,0.0024
5,3,217500,43,-0.6718405,-0.2183672,-1.9834217,-0.0133
5,3,218000,43,-0.6614226,1.1946155,-1.6780903,-0.0276
5,3,218500,43,-0.6449125,1.2064265,-1.3970876,-0.0404
5,3,219000,43,-0.6105124,0.3412122,-1.1639085,-0.0519
5,3,219500,43,-0.60575986,-0.20139559,-0.97035706,-0.0623
5,3,220000,43,-0.61707765,-0.6726248,-0.71688163,-0.0729
5,3,220500,43,-0.61241186,-0.74873626,3.30676,-0.0825
5,3,221000,43,-0.42679557,-0.5240961,3.2410789,-0.0912
5,3,221500,44,-0.43621883,-0.56463814,2.3786135,-0.0993
5,3,222000,44,-0.44685814,-0.72896343,0.68432176,-0.107
5,3,222500,44,-0.461804,-0.0057495884,-1.2793272,-0.1145
5,3,223000,44,-0.5819924,0.056576826,-1.4443852,-0.1219
5,3,223500,44,-0.6735258,0.3662866,-1.6459428,-0.1285
5,3,224000,44,-0.73960775,0.40000424,-1.5606681,-0.1353
5,3,224500,44,-0.7577229,0.6520688,-1.3013213,-0.1426
5,3,225000,44,-0.6831621,0.22928692,0.8383706,-0.1507
5,4,225500,44,-0.5441725,-0.10212734,3.1437838,-0.1598
5,4,226000,45,-0.3834665,0.1927775,2.5725267,-0.1695
5,4,226500,45,-0.38924706,0.48846725,1.1768214,-0.1797
5,4,227000,45,-0.37951797,0.66185415,1.120081,-0.1903
5,4,227500,45,-0.40348968,0.10070492,1.0284061,-0.2013
5,4,228000,45,-0.44321328,-0.045680605,0.12495534,-0.2124
5,4,228500,45,-0.4939084,-0.43927088,-1.817539,-0.2237
5,4,229000,45,-0.54302526,0.08119061,-2.0355232,-0.2348
5,4,229500,45,-0.5363598,0.21080191,-1.9371804,-0.2457
5,4,230000,45,-0.48186854,-0.024526002,-1.7787017,-0.2562
5,4,230500,45,-0.45145482,-1.230249,-1.2306566,-0.2661
5,4,231000,46,-0.3632788,0.118954934,0.31996438,-0.2764
5,4,231500,46,-0.30896363,0.5514845,-0.235997,-0.286
5,4,232000,46,-0.27062875,-0.2642437,-1.2236743,-0.2948
5,4,232500,46,-0.18385284,-0.29810703,-1.0855736,-0.3026
5,4,233000,46,-0.15232019,1.0028,-0.90439945,-0.3094
5,4,233500,46,-0.16235551,0.6092332,-0.75409657,-0.3154
5,4,234000,46,-0.1671865,0.17378488,-0.6292468,-0.3205
5,4,234500,46,-0.16872843,-0.49068865,0.7012522,-0.3247
5,4,235000,46,-0.21148397,-1.1469419,3.8526967,-0.3282
5,4,235500,46,-0.11846994,-1.1845653,3.8671966,-0.331
5,4,236000,47,-0.119784944,-0.9607758,3.284278,-0.3331
5,4,236500,47,-0.2414979,-0.7573137,2.1383142,-0.3345
5,4,237000,47,-0.57623893,-0.29513195,-0.4400009,-0.3351
5,4,237500,47,-0.77641535,-0.009298072,-1.6301452,-0.3349
5,4,238000,47,-0.8736107,0.1046952,-1.6190888,-0.3343
5,4,238500,47,-1.0078375,-0.04001243,-1.506577,-0.3331
5,4,239000,47,-1.0016452,0.8469769,-1.7288622,-0.3317
5,4,239500,47,-0.98661083,2.1127985,-0.32387492,-0.3303
5,4,240000,47,-0.92340493,0.8098612,2.6902435,-0.3291
5,4,240500,47,-0.7552408,0.18245165,2.8388758,-0.328
5,4,241000,48,-0.688571,-0.16392736,1.9748845,-0.3273
5,4,241500,48,-0.67732155,-0.20877455,0.7094651,-0.3271
5,4,242000,48,-0.6575059,-0.5813136,-0.5694629,-0.3278
5,4,242500,48,-0.62976986,-0.6353869,-1.8469074,-0.3292
5,4,243000,48,-0.60282195,-0.5761766,-2.4696364,-0.3317
5,4,243500,48,-0.5877293,-0.72714454,-2.0440578,-0.3352
5,4,244000,49,-0.5877293,-0.46762115,-1.6308236,-0.3399
5,4,244500,49,-0.5710384,-0.40285075,-1.3550403,-0.3461
5,4,245000,49,-0.5413659,-0.66944766,-1.0810231,-0.3539
5,4,245500,49,-0.5413659,-0.27267545,-0.9480936,-0.3637
5,4,246000,49,-0.5152435,0.44373283,-0.69750583,-0.3752
5,4,246500,49,-0.5015152,0.5423854,-0.56702864,-0.3886
5,4,247000,49,-0.5058775,0.28724706,-0.6486418,-0.4035
5,4,247500,49,-0.4894077,-0.2650568,0.7490313,-0.4198
5,4,248000,49,-0.43341383,-0.72816443,3.0238395,-0.4369
5,4,248500,49,-0.3792385,-0.42335206,2.5105069,-0.4541
5,4,249000,49,-0.33810905,-0.13759339,0.8337481,-0.4711
5,4,249500,49,-0.5332825,0.12909749,-0.46385527,-0.4871
5,4,250000,49,-0.6364727,0.49006993,-1.0651709,-0.5019
5,5,250500,49,-0.7312947,0.13867135,-0.9161525,-0.5149
5,5,251000,50,-0.90183556,0.20930262,2.081035,-0.5256
5,5,251500,50,-0.84661555,0.0407567,2.756361,-0.5338
5,5,252000,50,-0.7841402,0.06991066,2.3879347,-0.539
5,5,252500,50,-0.7941159,-0.27342275,1.5282507,-0.5389
5,5,253000,50,-0.83245534,-0.076037765,0.38752922,-0.5351
5,5,253500,50,-0.86401665,0.06297349,-0.041583844,-0.5275
5,5,254000,50,-0.8499194,0.72345203,-1.0612049,-0.5163
5,5,254500,50,-0.797225,1.928879,0.02430693,-0.5015
5,5,255000,50,-0.7218852,1.4518172,-0.26880452,-0.4831
5,5,255500,50,-0.57623893,1.194968,-1.7259303,-0.4618
5,5,256000,50,-0.59986436,0.14315042,-2.1724832,-0.4379
5,5,256500,50,-0.6280213,-0.84737474,-1.8252715,-0.4119
5,5,257000,50,-0.6589312,-0.8265397,-1.7606936,-0.3841
5,5,257500,50,-0.5877293,-0.8567982,-1.4784938,-0.3549
5,5,258000,50,-0.55346316,-0.5357615,-0.7653228,-0.3248
5,5,258500,50,-0.4641413,-0.8037119,2.0265493,-0.2943
5,5,259000,51,-0.32153642,-0.7913886,2.6395621,-0.2639
5,5,259500,51,-0.21148397,-0.7149857,2.310047,-0.2343
5,5,260000,51,-0.20586018,0.3011778,1.690451,-0.2077
5,5,260500,51,-0.269897,1.0288002,0.48617935,-0.1826
5,5,261000,51,-0.36367512,0.5805727,-0.07501144,-0.1587
5,5,261500,51,-0.5819924,-0.3461784,-1.7923105,-0.1345
5,5,262000,51,-0.6946609,0.46562535,-1.9474148,-0.1111
5,5,262500,51,-0.77192444,1.3995252,0.071166545,-0.0885
5,5,263000,51,-0.8845784,1.0266523,2.0739574,-0.0666
5,5,263500,51,-0.74951726,0.31054956,1.8446889,-0.0455
5,5,264000,51,-0.7095596,-0.38521174,1.1156316,-0.0253
5,5,264500,51,-0.72062033,-0.6805913,0.18447487,-0.006
5,5,265000,51,-0.82767993,-0.9129347,-0.66898,0.0122
5,5,265500,51,-0.86589766,-0.8066729,-1.2892637,0.0294
5,5,266000,51,-0.89923507,-0.6927031,-1.6933268,0.0456
5,5,266500,51,-0.9149178,0.052064843,-1.9614792,0.0609
5,5,267000,51,-0.9096859,0.68029684,-1.5311224,0.0757
5,5,267500,51,-0.88947695,1.2197556,-1.4310588,0.09
5,5,268000,51,-0.8612017,0.9364363,0.50545126,0.1041
5,5,268500,51,-0.77611464,-0.39730477,2.2603314,0.1178
5,5,269000,51,-0.6578142,-0.71161115,2.0978775,0.1297
5,5,269500,51,-0.55305785,-0.9904984,0.9424468,0.1406
5,5,270000,51,-0.5336227,-0.5455421,-0.14533967,0.1504
5,5,270500,51,-0.536795,-0.42815545,-0.6270737,0.1593
5,5,271000,51,-0.5704688,-0.3534822,-0.6906228,0.1673
5,5,271500,51,-0.67593116,1.1228374,-0.87764865,0.1747
5,5,272000,51,-0.745136,1.8531576,-0.9533248,0.1812
5,5,272500,51,-0.82981944,0.9350498,-1.7028735,0.1871
5,5,273000,51,-0.860789,-0.33296677,-1.3270923,0.1919
5,5,273500,51,-0.8281111,-1.1214352,2.9562128,0.1959
5,5,274000,52,-0.7687641,-0.25482965,2.5704756,0.1993
5,5,274500,52,-0.56468195,-0.6141571,1.9417189,0.2026
5,5,275000,52,-0.56080514,-0.59758496,1.5034882,0.2061
5,6,275500,52,-0.5463011,-0.51793915,1.1093928,0.2093
5,6,276000,52,-0.5177763,-0.40247476,0.20029677,0.2123
5,6,276500,52,-0.5121802,-0.18560836,-1.1624615,0.2153
5,6,277000,52,-0.5083561,0.8197123,-1.2605808,0.2183
5,6,277500,52,-0.48626515,1.1953769,-1.993757,0.2209
5,6,278000,52,-0.42679557,0.7120969,-2.1636646,0.2227
5,6,278500,52,-0.3617325,0.09588274,-1.949816,0.2237
5,6,279000,52,-0.3021593,-0.5201152,-1.6220219,0.2235
5,6,279500,53,-0.2518544,-0.5002061,-1.3503429,0.2222
5,6,280000,53,-0.22179984,-0.07411547,-1.1251806,0.2198
5,6,280500,53,-0.25228307,-0.032468967,-0.9382791,0.2166
5,6,281000,53,-0.34948245,0.52643836,0.20325215,0.2115
5,6,281500,53,-0.39095536,0.4979001,2.0700526,0.2055
5,6,282000,53,-0.41749218,-0.10490033,1.4144402,0.1981
5,6,282500,53,-0.5058775,-0.85867345,-0.13281165,0.1891
5,6,283000,53,-0.6927441,-0.68664485,-1.1564946,0.1787
5,6,283500,53,-0.8185509,-0.29031447,-0.9775512,0.1671
5,6,284000,53,-1.0486017,0.5847087,-0.80478406,0.1543
5,6,284500,53,-1.0824261,1.1732212,1.7227896,0.1401
5,6,285000,53,-1.1231047,0.42025176,2.9729586,0.1255
5,6,285500,53,-0.94106436,-0.033159863,2.2875588,0.1113
5,6,286000,53,-0.96480423,-0.59978926,1.316067,0.0977
5,6,286500,53,-1.0260711,-0.45055553,0.93745667,0.0851
5,6,287000,53,-1.11,-0.29732683,0.4465095,0.0735
5,6,287500,53,-1.1410794,-0.08830941,-0.49174356,0.0636
5,6,288000,53,-1.1738214,0.8610674,-0.96971595,0.0551
5,6,288500,53,-1.1268626,0.87074,1.0829594,0.0491
5,6,289000,53,-1.0685542,-0.008983173,1.9338272,0.0447
5,6,289500,53,-0.8196876,-0.702277,2.0302823,0.0418
5,6,290000,53,-0.76701623,-0.6520953,1.2174542,0.0407
5,6,290500,53,-0.7240406,-0.27871963,0.6039097,0.0418
5,6,291000,53,-0.67732155,-0.3527537,-0.21139883,0.0444
5,6,291500,53,-0.6552178,-0.12441934,-1.6939569,0.0483
5,6,292000,53,-0.6582394,0.98525023,-1.9364333,0.0466
5,6,292500,53,-0.6718405,1.2212597,-2.3780396,0.0454
5,6,293000,53,-0.71317667,-0.13977887,0.7849159,0.0443
5,6,293500,53,-0.6362964,-0.9654993,1.4227253,0.0431
5,6,294000,53,-0.5706674,-0.5627722,0.7973754,0.0417
5,6,294500,53,-0.54722035,-0.0057354886,0.07523838,0.0401
5,6,295000,53,-0.627407,0.24074078,-0.76170474,0.0379
8,0,500,1,1.8883334,-0.20226978,0.43015155,0.0757
8,0,1000,1,2.0221465,-0.92635316,-0.12567851,0.0805
8,0,1500,1,2.1835124,-0.49249345,-0.2762569,0.0849
8,0,2000,1,2.2877626,0.13711566,-2.1280057,0.0887
8,0,2500,1,2.3867664,0.7837481,-1.775435,0.0919
8,0,3000,1,2.4388213,0.6960653,0.6231045,0.0948
8,0,3500,1,2.492412,-0.27648243,1.1082448,0.0973
8,0,4000,1,2.5596411,-0.8150812,0.43108532,0.0995
8,0,4500,1,2.598817,0.054217435,0.47677568,0.0935
8,0,5000,1,2.538728,0.105715096,1.0293802,0.0814
8,0,5500,1,2.4027405,0.50434375,0.7838202,0.07
8,0,6000,2,2.3409836,0.6298426,0.42142984,0.0597
8,0,6500,2,2.306926,0.20764352,-0.2180467,0.0507
8,0,7000,2,2.3168373,-0.25631484,0.40045583,0.0435
8,0,7500,2,2.2695582,0.037231714,0.30162945,0.0376
8,0,8000,2,2.289946,0.35252506,-0.59116286,0.0327
8,0,8500,2,2.2048922,0.37194067,-0.13853656,0.0286
8,0,9000,2,2.192456,0.3885786,-0.4840665,0.0248
8,0,9500,2,2.2608526,0.07978532,-1.1270058,0.0218
8,0,10000,2,2.2921941,-0.1339415,-2.4090817,0.0194
8,0,10500,2,2.3512452,-0.5631952,-2.0697484,0.0174
8,0,11000,2,2.428359,-0.34787512,-1.3349059,0.016
8,0,11500,2,2.482099,0.008279847,0.584461,0.0151
8,0,12000,2,2.5265431,0.50722486,0.3750088,0.0145
8,0,12500,2,2.59575,0.49331293,0.9593621,0.0143
8,0,13000,2,2.6217868,0.059349813,2.075565,0.0143
8,0,13500,2,2.6629312,-0.036985643,1.436371,0.0149
8,0,14000,3,2.6670172,0.57246995,1.4446474,0.0155
8,0,14500,3,2.570446,0.06495689,1.0559071,0.0163
8,0,15000,3,2.3978543,0.22313465,0.7957707,0.0173
8,0,15500,3,2.216732,0.20645913,0.3132526,0.0182
8,0,16000,3,2.0288992,0.09905523,-0.74577576,0.0195
8,0,16500,3,2.082202,0.22192207,-2.7544336,0.0211
8,0,17000,3,2.25888,-0.07303448,-2.8897266,0.0229
8,0,17500,3,2.3349056,0.1271141,-3.2253046,0.025
8,0,18000,3,2.3895955,0.564433,-0.5190567,0.0273
8,0,18500,3,2.4765878,0.37590745,2.523414,0.0293
8,0,19000,3,2.5468943,-0.16607055,1.9312998,0.031
8,0,19500,3,2.6147323,-0.45394892,1.2966719,0.0324
8,0,20000,3,2.6378455,-1.9897045,0.46066257,0.0336
8,0,20500,3,2.640547,-1.171363,-0.07029063,0.0343
8,0,21000,3,2.640547,0.0628607,-2.4659321,0.0345
8,0,21500,3,2.6400967,0.48411036,-2.7420511,0.0343
8,0,22000,3,2.6217868,0.27265364,1.6680061,0.0335
8,0,22500,3,2.64022,0.2781244,1.5686527,0.032
8,0,23000,3,2.6732445,0.37000427,1.3177664,0.0301
8,0,23500,3,2.564012,0.34645268,0.9711145,0.0275
8,0,24000,3,2.3824959,0.05107315,0.9460798,0.0242
8,0,24500,3,2.2643688,-0.007982078,0.37720957,0.0199
8,0,25000,3,2.236805,0.1699779,-0.8718514,0.0146
8,0,25500,3,2.1597302,0.33302954,-0.9634028,0.0081
8,0,26000,4,2.1825953,0.12299692,-0.15545039,0.0013
8,0,26500,4,2.206123,0.02095569,-0.5430217,-0.0062
8,0,27000,4,2.2324424,0.37952644,0.11000681,-0.0141
8,0,27500,4,2.2967727,0.2958151,-0.33171687,-0.0224
8,0,28000,4,2.4344966,0.22266936,1.2800105,-0.031
8,0,28500,4,2.5204117,0.030214645,1.3258873,-0.0399
8,0,29000,4,2.611435,-0.025743296,0.68536586,-0.0489
8,0,29500,4,2.6549926,-0.047339696,0.40810314,-0.0582
8,0,30000,4,2.624081,0.034905225,0.011867624,-0.0672
8,0,30500,4,2.5907218,0.521541,-0.5923421,-0.0759
8,0,31000,4,2.5279608,0.66000235,1.2248418,-0.0848
8,0,31500,4,2.578278,0.23029743,0.8961726,-0.0936
8,0,32000,4,2.5872724,0.43970495,0.44036412,-0.1019
8,0,32500,4,2.5587294,0.81099385,0.21908398,-0.1097
8,0,33000,4,2.350738,0.15637146,0.22270498,-0.1169
8,0,33500,4,2.0691323,0.3025784,0.5824148,-0.1238
8,0,34000,4,2.0296397,0.2954485,0.62347424,-0.1305
8,0,34500,5,1.863612,0.1922276,-0.3340478,-0.1371
8,0,35000,5,1.761277,0.1938538,-0.57167476,-0.1431
8,0,35500,5,1.6660962,0.15249868,-0.54116553,-0.1489
8,0,36000,5,1.6397631,0.31612372,-0.55669034,-0.1543
8,0,36500,5,1.6833156,0.027277159,-0.6455668,-0.1595
8,0,37000,5,1.8100276,0.080579616,-0.5208758,-0.1643
8,0,37500,5,1.970521,0.3223324,0.115903296,-0.1689
8,0,38000,5,2.160606,0.35519934,0.9393511,-0.1736
8,0,38500,5,2.2743979,-0.2794763,0.34528187,-0.1779
8,0,39000,5,2.397835,0.007894449,0.23955314,-0.1817
8,0,39500,5,2.431125,0.18789423,0.0020469641,-0.1855
8,0,40000,5,2.3748345,0.26558486,0.09240433,-0.1892
8,0,40500,5,2.2599173,0.31558794,0.12500174,-0.1927
8,0,41000,5,2.1497679,0.042998586,-0.44675556,-0.1959
8,0,41500,5,2.1573653,0.31533882,-0.61683434,-0.1987
8,0,42000,5,2.2093697,0.45840618,-0.8053697,-0.2009
8,0,42500,5,2.248503,0.06398869,-1.1068279,-0.2031
8,0,43000,5,2.2961454,-0.35379708,-1.5187681,-0.2046
8,0,43500,5,2.2830317,0.030148845,-0.22047071,-0.2058
8,0,44000,5,2.337218,0.48195776,1.718733,-0.2067
8,0,44500,5,2.3882148,-0.022960909,1.2724808,-0.2077
8,0,45000,6,2.4703865,-0.40011537,0.9806002,-0.2087
8,0,45500,6,2.423853,0.11166057,0.60057145,-0.2098
8,0,46000,6,2.3400557,0.6984106,0.45503572,-0.2111
8,0,46500,6,2.247991,0.5771229,0.6098575,-0.2129
8,0,47000,6,2.3178592,-0.18212567,0.09110872,-0.215
8,0,47500,6,2.3853576,0.0616058,-0.067058325,-0.2173
8,0,48000,6,2.440221,0.81670433,0.44610068,-0.2198
8,0,48500,6,2.494697,0.11856954,0.050735023,-0.2227
8,0,49000,7,2.415301,-0.33646357,-0.12104904,-0.2261
8,0,49500,7,2.3760998,0.12823269,0.16493656,-0.2299
8,0,50000,7,2.157947,0.3217167,0.07570673,-0.2345
8,0,50500,7,2.0049024,0.384499,0.025362385,-0.2397
8,0,51000,7,1.8656013,0.26501617,0.20669194,-0.2453
8,0,51500,7,1.987104,0.55184174,0.8201743,-0.251
8,0,52000,7,2.109513,0.19610038,0.44364545,-0.2567
8,0,52500,7,2.0701487,0.060524806,0.20833713,-0.2621
8,0,53000,7,1.990146,0.008505446,-0.34442374,-0.2673
8,0,53500,8,1.6665903,0.4738409,-0.41135275,-0.2721
8,0,54000,8,1.4214097,0.26814634,-0.27617168,-0.2763
8,0,54500,8,1.5513077,0.15534687,-0.14449169,-0.2799
8,0,55000,8,1.7242578,-0.27393976,-0.111422434,-0.2831
8,0,55500,8,1.9448451,-0.68446404,-0.6006237,-0.2859
8,0,56000,8,2.0972245,-0.25821364,-0.40414637,-0.2881
8,0,56500,8,2.2229047,-0.1552747,-0.47268528,-0.2898
8,0,57000,8,2.318273,-0.18395866,-0.13782193,-0.2908
8,0,57500,8,2.3938932,-0.01628694,-0.53780395,-0.291
8,0,58000,8,2.4838426,0.5013217,-0.5898673,-0.2907
8,0,58500,8,2.478399,0.23151001,-0.2382582,-0.29
8,0,59000,8,2.4690254,0.3254062,1.0593044,-0.2893
8,0,59500,8,2.4772074,0.17854126,0.88026166,-0.2886
8,0,60000,8,2.4655004,-0.12756363,0.32435572,-0.288
8,0,60500,8,2.3515735,-0.31499407,0.0890906,-0.2876
8,0,61000,8,2.021593,-0.14497705,-0.3822958,-0.2877
8,0,61500,8,0.043200698,0.5434899,0.2741328,-0.2882
8,0,62000,8,-0.23838398,0.2845446,-0.23744786,-0.2893
8,0,62500,8,-0.08660386,0.39960006,-0.5446027,-0.2909
8,0,63000,8,-0.04661896,0.41999325,-0.5284887,-0.2932
8,0,63500,8,0.14857118,0.39575547,0.060164668,-0.2961
8,0,64000,8,0.6610817,0.169005,0.35278034,-0.2997
8,0,64500,9,1.3682424,-0.19317533,0.42465398,-0.3039
8,0,65000,9,1.4602355,-0.34534183,-0.0060996166,-0.3086
8,0,65500,9,1.4714668,-0.31809136,-0.724676,-0.3135
8,0,66000,9,1.4477386,-0.157291,-0.81838006,-0.3184
8,0,66500,9,1.5339339,0.18459953,-0.74273866,-0.3231
8,0,67000,9,1.7712069,0.22548464,0.4043167,-0.3275
8,0,67500,9,2.0047793,-0.05251907,0.6686945,-0.3316
8,0,68000,10,2.1290898,-0.4409018,0.3690417,-0.3351
8,0,68500,10,2.2086334,-0.23657022,0.71677357,-0.338
8,0,69000,10,2.1218808,0.18698242,0.6471366,-0.3402
8,0,69500,10,2.033085,0.15475938,0.31140313,-0.3419
8,0,70000,10,2.0553153,0.28973335,0.035736013,-0.3428
8,0,70500,10,2.1099217,-0.25336796,-0.42712185,-0.3433
8,0,71000,10,2.1557748,0.005196661,-0.7351398,-0.3429
8,0,71500,10,2.247477,0.3401077,-0.9736664,-0.3413
8,0,72000,11,2.3454363,0.0073257512,-1.4109156,-0.3387
8,0,72500,11,2.4467678,-0.21647781,-0.98908764,-0.3348
8,0,73000,11,2.5483415,0.03127214,-2.033245,-0.3298
8,0,73500,11,2.5982225,0.5615707,-0.24251853,-0.3239
8,0,74000,11,2.606782,0.13633546,0.5605739,-0.3172
8,0,74500,11,2.6298912,-0.20827165,0.048240393,-0.3099
8,0,75000,11,2.5330393,0.20356865,-0.55609244,-0.3016
8,0,75500,11,2.039026,0.20022227,0.14626549,-0.2923
8,0,76000,11,1.0141996,0.13345437,1.0497781,-0.282
8,0,76500,11,0.41995922,-0.66347396,-1.1035265,-0.2708
8,0,77000,11,0.2577271,-1.1877377,-1.5554172,-0.2582
8,0,77500,12,0.4186038,-0.6217288,-3.0168097,-0.2443
8,0,78000,12,0.8325694,0.11730994,0.3396334,-0.2288
8,0,78500,12,1.4383672,-0.9398421,1.7263453,-0.2122
8,0,79000,12,1.852722,-0.38333645,1.6625917,-0.1948
8,0,79500,12,1.9030255,-0.40025637,1.415674,-0.1765
8,0,80000,12,1.8142627,-0.25114015,-0.71919537,-0.1575
8,0,80500,12,1.8665769,-0.13865088,-1.6841172,-0.1384
8,0,81000,12,1.9911299,-0.53485906,-1.0126144,-0.1191
8,0,81500,12,2.1021576,-0.82097024,-1.0765299,-0.0996
8,0,82000,12,2.225841,0.24000758,1.7844607,-0.0798
8,0,82500,13,2.3238022,-0.03145847,2.092659,-0.0601
8,0,83000,13,2.3878222,0.30861315,1.238026,-0.0407
8,0,83500,13,2.4618595,0.52873194,0.6881018,-0.0219
8,0,84000,13,2.4277992,0.4087227,-0.21935952,-0.0039
8,0,84500,13,2.3395917,-0.10465594,0.52534,0.0129
8,0,85000,13,2.2646492,-0.18417487,0.66330576,0.0284
8,0,85500,13,2.2258968,0.0019865758,-0.57675886,0.0423
8,0,86000,13,2.2191846,-0.021978613,-0.55566293,0.0545
8,0,86500,13,2.2783203,-0.679186,-0.7566694,0.0647
8,0,87000,13,2.3479674,-0.3518701,-3.0519407,0.0726
8,0,87500,13,2.4006326,0.45093322,-3.020082,0.0781
8,0,88000,13,2.4659264,0.85402215,1.4978769,0.0817
8,0,88500,13,2.5072286,-0.12434884,1.9687365,0.083
8,0,89000,13,2.556643,-0.10807282,1.6722063,0.0823
8,0,89500,13,2.5660877,0.077820726,0.98316455,0.0795
8,0,90000,13,2.5177393,0.041447595,0.32750517,0.0746
8,0,90500,13,2.5226305,-0.4625969,-2.0534496,0.0677
8,0,91000,13,2.5112455,0.13848335,-1.4003391,0.0589
8,0,91500,13,2.5410757,0.67414457,2.023978,0.0488
8,0,92000,13,2.5575871,-0.058821745,1.7153881,0.0377
8,0,92500,14,2.6322107,0.18989171,0.960827,0.0254
8,0,93000,14,2.6503792,0.3886585,0.27167082,0.0123
8,0,93500,14,2.4491117,0.2960219,-0.072840706,-0.0013
8,0,94000,14,2.1742835,-0.066929206,-0.6776734,-0.0151
8,0,94500,14,1.9843897,0.0187232,-0.13993546,-0.0287
8,0,95000,14,2.0808272,0.1941969,-1.9699516,-0.0421
8,0,95500,14,2.192704,0.037452612,-1.0235873,-0.0549
8,0,96000,14,2.3371599,-0.045426805,1.4278442,-0.0669
8,0,96500,14,2.41178,-0.23526363,1.0526384,-0.0782
8,0,97000,14,2.5051181,-0.0056132893,0.7180654,-0.0883
8,0,97500,14,2.545702,-0.10758402,0.3985816,-0.0971
8,0,98000,14,2.5176048,-0.43410093,-0.021863738,-0.1047
8,0,98500,14,2.4641378,-0.041037027,0.03411008,-0.1111
8,0,99000,14,2.4663613,-0.01854763,-0.38020357,-0.1168
8,0,99500,15,2.4714944,-0.12312685,-1.1676717,-0.1218
8,0,100000,15,2.5370004,-0.47492492,-1.252668,-0.126
8,0,100500,15,2.5835085,-1.0054209,1.479762,-0.1295
8,0,101000,15,2.6283972,-1.206359,0.7433741,-0.1323
8,0,101500,15,2.7042787,-0.68785274,0.5217882,-0.1346
8,0,102000,15,2.6937253,0.23760588,-0.49140683,-0.1361
8,0,102500,15,2.6943328,0.08596579,-3.2680056,-0.1369
8,0,103000,15,2.674125,0.082563005,-0.388651,-0.1374
8,0,103500,15,2.631955,0.25485012,1.2942464,-0.1375
8,0,104000,15,2.6705008,0.5403691,0.73210496,-0.1375
8,0,104500,15,2.7024395,-0.0048236926,1.0749149,-0.1379
8,0,105000,16,2.7069607,0.053958938,0.37785769,-0.1384
8,0,105500,16,2.6419053,0.31501922,0.1138808,-0.1393
8,0,106000,16,2.463713,0.24483916,0.2572347,-0.1406
8,0,106500,16,2.3279195,-0.1111842,0.07890461,-0.1419
8,0,107000,16,2.2383957,0.11905833,0.01188805,-0.1434
8,0,107500,16,2.2352962,0.026835361,0.64226204,-0.1453
8,0,108000,16,2.345866,-0.19093344,-0.20511979,-0.1476
8,0,108500,16,2.3867328,-0.4812323,-2.2601166,-0.1501
8,0,109000,16,2.4413154,-0.02711569,-2.8080714,-0.1528
8,0,109500,16,2.5132272,0.30834058,-2.8067422,-0.1558
8,0,110000,16,2.602222,-0.4163115,-2.2106059,-0.1591
8,0,110500,16,2.6775005,-0.23836562,-2.1481922,-0.1624
8,0,111000,16,2.7111754,-0.2214692,-1.87705,-0.1658
8,0,111500,16,2.735144,-0.29707304,-1.5875231,-0.1692
8,0,112000,16,2.7103186,0.2814332,0.060714424,-0.1725
8,0,112500,16,2.6275015,1.2487122,3.211638,-0.1757
8,0,113000,16,2.637104,0.277316,1.8280156,-0.1788
8,0,113500,16,2.606384,-0.05590306,2.090752,-0.1818
8,0,114000,16,2.382349,-0.12373784,1.5570941,-0.1847
8,0,114500,16,1.424344,0.2781761,1.2505879,-0.1874
8,0,115000,16,0.42046326,0.46777323,1.3896433,-0.1896
8,0,115500,16,0.50362533,0.24158677,1.1735231,-0.1915
8,0,116000,16,0.7750279,0.31428134,1.0852851,-0.1931
8,0,116500,16,1.2895689,0.14343242,0.69107616,-0.1945
8,0,117000,16,1.6835148,-0.063352525,0.8844108,-0.1953
8,0,117500,17,1.8151684,0.20356394,0.74130785,-0.1957
8,0,118000,17,2.0915306,0.3659482,0.10878065,-0.1955
8,0,118500,17,2.1139991,0.05059845,-0.5526763,-0.1947
8,0,119000,17,2.1520743,0.16582783,0.8276483,-0.1934
8,0,119500,17,2.213454,0.1934402,-0.053427286,-0.1916
8,0,120000,17,2.2244473,0.19908017,0.119001955,-0.1893
8,0,120500,17,2.2347243,0.15657826,0.5417747,-0.1864
8,0,121000,17,2.2661011,-0.2824138,0.6335727,-0.183
8,0,121500,17,2.318388,0.015644712,-0.45851293,-0.1792
8,0,122000,17,2.3598912,-0.28931808,-1.0299054,-0.1751
8,0,122500,17,2.3936753,-0.63017464,-2.1036785,-0.1707
8,0,123000,17,2.4594095,-0.43931788,-0.9009165,-0.1659
8,0,123500,17,2.5256703,0.35274127,-1.9786687,-0.1605
8,0,124000,18,2.5827873,0.79024345,1.5179836,-0.1543
8,0,124500,18,2.6538987,-0.056608055,0.75031614,-0.1479
8,0,125000,18,2.6814516,0.14357813,0.4898634,-0.1418
8,0,125500,18,2.7452426,0.37849715,0.957817,-0.1361
8,0,126000,18,2.6639926,0.023841474,1.1994437,-0.1307
8,0,126500,18,2.5696113,-0.24010931,0.827819,-0.126
8,0,127000,18,2.4383554,-0.032605264,-0.0020540478,-0.1219
8,0,127500,19,2.2406018,0.037368014,-0.3964191,-0.1187
8,0,128000,19,1.7310724,-0.023999605,-0.3263103,-0.1169
8,0,128500,19,1.3880479,0.028908052,0.025674324,-0.1157
8,0,129000,19,0.9876573,-0.16187347,-0.30048245,-0.1154
8,0,129500,19,1.2887014,-0.23681462,-0.61053544,-0.1159
8,0,130000,19,1.5787231,-0.37934145,-0.47057056,-0.1171
8,0,130500,19,1.7985842,-0.27211148,-0.55275244,-0.1192
8,0,131000,19,1.9554734,0.09444925,-0.9387512,-0.122
8,0,131500,19,2.0695498,0.7497813,0.9433167,-0.126
8,0,132000,19,2.2476578,-0.99080396,0.5746292,-0.1303
8,0,132500,19,2.34477,-1.91552,0.31199023,-0.1346
8,0,133000,19,2.3971393,-0.32529172,0.24676128,-0.1389
8,0,133500,19,2.4055433,-0.013927551,0.3694683,-0.1429
8,0,134000,19,2.470634,-0.1793339,1.0820752,-0.1465
8,0,134500,19,2.4864035,-0.7816502,0.42315528,-0.1495
8,0,135000,19,2.558192,-0.20226978,0.4172054,-0.1514
8,0,135500,19,2.5976427,0.08808548,-0.10330182,-0.1519
8,0,136000,19,2.5525985,-0.057049852,-1.0264783,-0.1512
8,0,136500,19,2.4569638,0.93759245,0.3442165,-0.1492
8,0,137000,19,2.4747977,0.63947284,0.73909485,-0.1457
8,0,137500,20,2.3967717,-0.21109635,0.32890934,-0.1408
8,0,138000,20,2.3280652,0.0013661786,-0.022976678,-0.1348
8,0,138500,20,2.1127543,0.10421581,0.3224803,-0.128
8,0,139000,20,1.8451952,0.32562238,-1.3030745,-0.1205
8,0,139500,20,1.8914129,-1.6792568,1.1157532,-0.1129
8,0,140000,20,2.0262768,-2.60519,0.697495,-0.1051
8,0,140500,20,2.0188758,-0.8673496,0.62968326,-0.0974
8,0,141000,20,1.936805,0.15948285,0.50230825,-0.0901
8,0,141500,20,1.9572428,0.75193864,-0.15610607,-0.0833
8,0,142000,20,1.9868629,0.39724067,-0.06714732,-0.0774
8,0,142500,20,2.1201742,0.21290751,-1.3783184,-0.0726
8,0,143000,20,2.1987457,-1.0323142,-3.429002,-0.0691
8,0,143500,21,2.276505,-0.9620871,-2.432289,-0.0673
8,0,144000,21,2.3805976,-0.44677207,-2.926218,-0.0673
8,0,144500,21,2.4770887,-0.03150077,-2.425515,-0.0695
8,0,145000,21,2.5327437,0.7128113,1.8343658,-0.0733
8,0,145500,21,2.5890503,0.42412922,1.4669806,-0.0788
8,0,146000,21,2.6717274,-0.092515886,1.342027,-0.0856
8,0,146500,21,2.6972537,-0.061204635,1.3697723,-0.0936
8,0,147000,21,2.5868804,-0.094926976,0.7520028,-0.1025
8,0,147500,22,2.3319218,0.06624468,-0.02365162,-0.1121
8,0,148000,22,1.4320303,-0.16524336,-1.8296988,-0.1221
8,0,148500,22,0.6770545,0.13579966,-1.1240817,-0.1323
8,0,149000,22,0.40392926,-0.8158473,1.4446588,-0.1423
8,0,149500,22,0.64685994,-1.6329949,0.89345294,-0.1521
8,0,150000,22,1.029997,0.017698603,0.49932337,-0.1611
8,1,150500,22,1.2353166,0.22858194,0.29669273,-0.1693
8,1,151000,23,0.75656414,0.2760047,0.4884175,-0.1767
8,1,151500,23,0.14727816,0.1255725,0.40184075,-0.1829
8,1,152000,23,0.013046363,-0.18482347,-2.064515,-0.1881
8,1,152500,23,0.5231223,-0.20948425,-3.4034555,-0.1924
8,1,153000,23,1.1072831,0.3020896,0.6507462,-0.1957
8,1,153500,23,1.6226043,-0.18186247,1.2619412,-0.1985
8,1,154000,24,1.8335686,-0.016536038,0.027117293,-0.2005
8,1,154500,24,1.8680971,0.49402732,0.40456504,-0.2022
8,1,155000,24,1.8558923,0.42837802,-0.07741765,-0.2034
8,1,155500,24,1.9400445,0.48504096,0.6433808,-0.2045
8,1,156000,24,2.0717475,-1.1759549,-0.46856034,-0.2057
8,1,156500,24,2.1657877,-1.2375199,0.54426056,-0.2067
8,1,157000,25,2.251093,-0.083271034,0.67399776,-0.2079
8,1,157500,25,2.2979848,0.21608,-2.255279,-0.209
8,1,158000,25,2.2511232,-0.6321956,-3.064538,-0.2099
8,1,158500,25,1.9850304,-0.43070284,-2.2598617,-0.2103
8,1,159000,25,1.8737689,0.3819892,0.76446396,-0.2099
8,1,159500,25,2.0089512,0.13844104,0.7274472,-0.2084
8,1,160000,25,2.0924485,0.016382609,-1.0730779,-0.2059
8,1,160500,25,2.10811,0.41511938,1.1964726,-0.2021
8,1,161000,26,2.1597362,0.45721707,1.7255236,-0.1969
8,1,161500,26,2.2487996,0.38129362,0.9795389,-0.1903
8,1,162000,26,2.3100758,0.45775288,0.59754366,-0.1821
8,1,162500,26,2.300268,-0.17412162,0.9903569,-0.1721
8,1,163000,26,2.2936249,-0.3726205,1.3483142,-0.1603
8,1,163500,26,2.3126082,0.21882008,0.17418323,-0.1463
8,1,164000,26,2.321066,-0.288129,-1.3138727,-0.1306
8,1,164500,26,2.3502073,-0.99485534,-2.4936705,-0.1133
8,1,165000,26,2.4654353,-2.4309478,-1.3078668,-0.0947
8,1,165500,26,2.5525985,0.15325537,2.1747103,-0.0749
8,1,166000,26,2.5464816,1.3279022,1.2446456,-0.0544
8,1,166500,27,2.6720264,-0.21839541,1.3452348,-0.0337
8,1,167000,27,2.7194715,-0.23309694,1.0734198,-0.0132
8,1,167500,27,2.731557,-0.47084063,1.0055442,0.0069
8,1,168000,27,2.6332765,-0.91977787,0.30642352,0.0267
8,1,168500,27,2.5386667,-0.40672353,1.2248582,0.0455
8,1,169000,27,2.5511706,-0.25130937,0.8582203,0.0631
8,1,169500,27,2.5597098,-0.36383623,0.5399241,0.0794
8,1,170000,27,2.515138,-1.3754314,0.58015245,0.0941
8,1,170500,27,2.449991,-0.86426646,0.3714704,0.107
8,1,171000,27,2.4209895,-0.64831185,-0.9501934,0.1174
8,1,171500,27,2.3825924,-0.29519305,0.023502428,0.1258
8,1,172000,27,2.4153054,-0.3284595,-0.24208754,0.1321
8,1,172500,27,2.4989734,0.35777962,-0.3776961,0.1361
8,1,173000,28,2.4848373,0.17731456,-1.0933515,0.1381
8,1,173500,28,2.5179677,-0.16556765,-1.9511272,0.1379
8,1,174000,28,2.5028138,0.12984478,-2.9619606,0.1365
8,1,174500,28,2.5112455,-0.5894822,-2.7479708,0.1332
8,1,175000,28,2.5586197,0.015860911,1.8178608,0.1285
8,2,175500,28,2.6113355,0.89928293,2.4699693,0.1223
8,2,176000,28,2.6344311,0.9188396,1.7801014,0.1151
8,2,176500,28,2.6239965,0.41573036,0.95838106,0.1067
8,2,177000,28,2.4693325,0.019550394,0.46823254,0.0974
8,2,177500,28,2.3229227,0.027939856,0.14417733,0.0876
8,2,178000,28,2.161609,-0.5448606,0.042069033,0.0775
8,2,178500,29,2.1772704,-0.9810515,-0.12729773,0.0675
8,2,179000,29,2.2288334,-0.5238987,-0.22431931,0.0577
8,2,179500,29,2.2976372,0.26689616,-0.395422,0.0481
8,2,180000,29,2.3691988,1.3604261,0.50788283,0.0391
8,2,180500,29,2.5047092,0.51086736,1.0799743,0.0305
8,2,181000,29,2.4507122,-0.7206492,0.5544635,0.0225
8,2,181500,29,2.447032,-0.37923336,0.23902965,0.0146
8,2,182000,29,2.321857,0.15384758,0.4072438,0.0075
8,2,182500,29,2.22044,0.6997548,1.0683663,0.0013
8,2,183000,29,2.137884,-0.14687113,0.022162756,-0.0041
8,2,183500,30,1.8107058,0.055914126,-0.26861748,-0.0088
8,2,184000,30,1.5147209,0.12960508,-0.2897683,-0.0123
8,2,184500,30,1.3582355,0.21483919,-0.56074554,-0.015
8,2,185000,30,1.2782567,-0.29847363,-0.5818027,-0.017
8,2,185500,30,1.3610151,-1.9072434,-0.14915092,-0.0185
8,2,186000,30,1.6007922,-1.3852496,0.18422858,-0.0197
8,2,186500,30,1.7661606,-0.58000237,0.3014535,-0.0207
8,2,187000,30,1.9851311,-1.4979175,-0.7733288,-0.0214
8,2,187500,31,2.1306152,0.28975216,-0.44466975,-0.0223
8,2,188000,31,2.258231,0.9432653,-0.41282606,-0.023
8,2,188500,31,2.383899,0.5449751,-0.1738241,-0.0237
8,2,189000,31,2.410774,-0.31772476,-0.08197504,-0.0245
8,2,189500,31,2.4538562,-0.926433,-0.23478106,-0.0255
8,2,190000,31,2.4751506,-1.7075366,-0.021153487,-0.0266
8,2,190500,31,2.4937637,-2.510932,0.5594598,-0.0277
8,2,191000,31,2.5583978,-1.2795941,-1.4587971,-0.0288
8,2,191500,31,2.5845578,0.10226531,0.12104692,-0.0301
8,2,192000,31,2.6124794,0.41409478,0.022154002,-0.0314
8,2,192500,31,2.6283026,-0.27565995,0.23110864,-0.0329
8,2,193000,31,2.4949033,-0.27816972,0.13903575,-0.0345
8,2,193500,31,2.1435244,-0.25264886,-0.08489863,-0.0363
8,2,194000,31,1.8376143,-0.33432508,-0.20174798,-0.0381
8,2,194500,31,1.867356,-0.97471124,-0.23307313,-0.0401
8,2,195000,31,1.946059,-1.1603698,-2.5934875,-0.0423
8,2,195500,31,2.0477555,-0.38008407,-2.2808444,-0.0447
8,2,196000,31,2.0851014,0.3459216,-2.8015864,-0.0468
8,2,196500,31,2.1229918,0.510966,1.1806151,-0.0491
8,2,197000,31,2.1925735,-0.26894838,1.9056617,-0.0517
8,2,197500,32,2.2618306,-0.3942733,1.2677139,-0.0545
8,2,198000,32,2.2925348,0.18008286,0.86477476,-0.0577
8,2,198500,32,2.2512615,0.5916647,0.61015487,-0.0614
8,2,199000,32,2.1788714,0.59299946,0.77057344,-0.0653
8,2,199500,32,2.221674,-0.06522311,1.0561401,-0.0697
8,2,200000,32,2.2555625,-1.7694917,1.2048296,-0.0741
8,3,200500,32,2.2954125,-1.727065,0.6770287,-0.0788
8,3,201000,32,2.343942,0.8210048,0.6277214,-0.0835
8,3,201500,33,2.3378372,0.6202499,0.2102216,-0.0884
8,3,202000,33,2.3386304,0.62147194,0.30184713,-0.0933
8,3,202500,33,2.337182,0.2974272,0.37772024,-0.0981
8,3,203000,33,2.338183,-0.083299235,0.103330925,-0.1028
8,3,203500,33,2.4065714,-1.4482152,-0.2538023,-0.1079
8,3,204000,33,2.4438245,-1.0116483,-0.30044365,-0.1128
8,3,204500,33,2.4864914,0.45732987,-0.113545306,-0.1177
8,3,205000,33,2.5573192,0.6080112,-0.221731,-0.1223
8,3,205500,33,2.5787952,0.17573537,-0.2955174,-0.1267
8,3,206000,33,2.5465138,0.5782039,0.2609485,-0.1303
8,3,206500,33,2.5294323,0.21102752,0.34240204,-0.1336
8,3,207000,33,2.3923879,0.1929843,0.02251934,-0.1366
8,3,207500,33,2.1889522,0.10150862,0.054998863,-0.1395
8,3,208000,33,1.7603649,0.47753978,0.5732008,-0.1419
8,3,208500,33,1.407798,-0.0018486065,-0.108107544,-0.1442
8,3,209000,33,-0.49990174,-1.7602515,-0.42591026,-0.146
8,3,209500,33,-0.08637992,-0.83380115,-1.9600021,-0.1474
8,3,210000,34,0.14070465,0.19523558,-2.1687856,-0.1485
8,3,210500,34,0.42239004,-0.2842421,-0.96761906,-0.1491
8,3,211000,34,0.9965865,0.39169937,-0.84634686,-0.1492
8,3,211500,34,1.5278164,-1.3190222,1.2306528,-0.1489
8,3,212000,34,1.8505954,-1.715033,0.63768834,-0.1482
8,3,212500,34,2.0200639,0.7371196,0.5272315,-0.1473
8,3,213000,34,2.069081,1.0908823,0.73094505,-0.1462
8,3,213500,34,2.0872161,0.8952504,0.7544274,-0.1449
8,3,214000,34,2.1373146,0.3654359,0.39505544,-0.1437
8,3,214500,34,2.2035112,0.11137857,-0.04208487,-0.1424
8,3,215000,34,2.2936425,0.149627,0.18649036,-0.1409
8,3,215500,35,2.3607717,-0.40234786,0.5931062,-0.1397
8,3,216000,35,2.4341326,-0.41288993,-0.2547069,-0.1383
8,3,216500,35,2.491572,0.012688426,-0.46724486,-0.1371
8,3,217000,35,2.472412,0.107595086,-0.17374766,-0.1359
8,3,217500,35,2.397757,0.38436273,-0.69100595,-0.1349
8,3,218000,35,2.3831878,0.42272395,-1.9667438,-0.1344
8,3,218500,35,2.4178832,-1.5444802,-0.15394905,-0.1341
8,3,219000,35,2.4268181,-1.6877496,-1.3431071,-0.1343
8,3,219500,35,2.4687746,-0.682758,-3.1162107,-0.1345
8,3,220000,35,2.4713016,0.3642938,-2.594667,-0.1351
8,3,220500,35,2.4216933,1.0475343,-2.162638,-0.1358
8,3,221000,35,2.387941,0.6452115,-1.4226053,-0.1369
8,3,221500,35,2.316576,0.55970013,2.3150947,-0.1383
8,3,222000,35,2.392199,-0.20146139,1.3309203,-0.1399
8,3,222500,36,2.388443,0.32981476,0.46503088,-0.1418
8,3,223000,36,2.3516674,0.6898143,2.2590518,-0.1437
8,3,223500,36,2.3638644,0.3031424,1.7054436,-0.1459
8,3,224000,36,2.3849323,-0.03798674,1.311506,-0.1481
8,3,224500,36,2.386504,-0.3469915,0.79539603,-0.1505
