subject_id,timestamp,BPM,ECG,resp,label
6,500,104.8776104905255,-0.0008386230468749,4.463250732421876,0.2779
6,1000,107.31781996325836,-0.003709716796875,4.974696044921875,0.3229
6,1500,108.52142520797489,-1.6479492187500055e-05,3.74928466796875,0.3686
6,2000,108.71590819257015,-0.006470947265625,3.032498779296875,0.4155
6,2500,108.74390652807584,-0.015999755859375,2.6345684814453127,0.4628
6,3000,105.93298565994728,0.0074114990234375,2.30590087890625,0.5105
6,3500,99.83361064891864,-0.1057781982421875,1.6377301025390625,0.5587
6,4000,98.17221026844103,-0.029775390625,1.2526922607421875,0.6071
6,4500,98.4603476634292,0.0148718261718749,0.9478094482421876,0.6413
6,5000,99.8520695239876,0.0018316650390625,0.0526519775390625,0.6629999999999999
6,5500,101.74313449659284,0.01176513671875,-1.590638427734375,0.6798
6,6000,103.7742023452402,0.0093829345703124,-3.141193237304688,0.6925
6,6500,105.27362605408672,0.039442138671875,1.7494213867187502,0.7019
6,7000,110.49723756905956,-0.0846710205078125,1.47423095703125,0.7097
6,7500,110.49723756905956,0.0050982666015625,1.1642755126953124,0.716
6,8000,111.53677582640812,-0.00732666015625,0.8675506591796875,0.7201
6,8500,111.73184357542088,-0.0236053466796875,-0.0475433349609374,0.7229
6,9000,112.32215665517111,-0.015731201171875,-0.3091253662109375,0.7244
6,9500,113.26112911479164,-0.0259930419921874,-1.0250848388671876,0.7241
6,10000,114.56159483510844,-0.0118817138671875,-3.7761273193359375,0.7225
6,10500,115.9332873674602,-0.007259521484375,-4.407911376953125,0.7197
6,11000,117.27117706525208,-0.0108282470703125,-5.9520654296875,0.7157
6,11500,118.78881331256224,-0.0085443115234374,-6.523610229492188,0.7106
6,12000,121.05354549216688,-0.0339715576171875,4.169672851562501,0.7043
6,12500,123.42209459715956,-0.0050830078124999,4.135153808593751,0.6969
6,13000,124.22360248447096,-0.0067303466796875,3.4456457519531254,0.6884
6,13500,123.05235137533089,0.022071533203125,2.7377178955078127,0.679
6,14000,118.08320251177555,0.0334552001953125,2.3248638916015625,0.6689
6,14500,108.25003086801148,0.0058343505859375,1.787567138671875,0.6582
6,15000,96.04702615938714,0.0162652587890625,1.6770037841796874,0.6478
6,15500,90.09009009009053,-0.0629400634765625,1.189013671875,0.637
6,16000,89.0829973252408,0.0460009765625,1.1281707763671875,0.6259
6,16500,88.1120030826519,0.003609619140625,1.1881652832031249,0.6145
6,17000,86.95652173913075,-0.05898681640625,0.9167468261718752,0.603
6,17500,84.88256576930124,0.0025402832031249,0.5648431396484375,0.5915
6,18000,83.41564086501762,0.015611572265625,-0.4993328857421875,0.5799
6,18500,81.74386920981145,0.0122906494140625,0.1335821533203125,0.5683
6,19000,83.89870619843003,-0.0719622802734375,0.5343249511718751,0.5567
6,19500,85.86040374719751,-0.0160235595703125,0.43256103515625,0.5451
6,20000,87.71813401569193,-0.04239013671875,-0.1429620361328125,0.5334
6,20500,89.41877794336153,-0.0090545654296875,0.0491229248046875,0.5226
6,21000,91.79487998758928,0.0090905761718749,-0.6516162109375,0.5117
6,21500,92.95730703725646,-0.0126153564453125,-1.6530523681640623,0.5007
6,22000,94.7006495552132,-0.0437542724609375,-1.5385699462890623,0.4895
6,22500,97.5790638150182,-0.0285003662109375,-3.471346435546875,0.4771
6,23000,101.5240498674175,0.0071600341796875,-6.232368774414063,0.4646
6,23500,103.27022375215851,-0.0049829101562499,-2.4847802734375,0.4518
6,24000,108.61969617600442,-0.0570159912109375,2.802487182617188,0.4389
6,24500,111.26959754323336,-0.0036669921874999,2.4752099609375,0.4268
6,25000,114.09262464882612,-0.0122137451171875,2.055564575195312,0.4144
6,25500,114.32671755725588,-0.0259417724609375,1.2174114990234377,0.4018
6,26000,112.10686456401066,-0.0263031005859375,0.3927386474609376,0.389
6,26500,110.40102754387928,0.0095391845703125,0.31377197265625,0.3761
6,27000,108.74425395071655,0.0200848388671875,-1.0067572021484374,0.3632
6,27500,107.33274979715044,-0.0088873291015625,0.0537817382812499,0.3504
6,28000,107.80058114858214,0.0174139404296875,1.4984014892578128,0.3375
6,28500,109.65612830836058,0.01517822265625,1.4805084228515626,0.3246
6,29000,107.7899025912045,0.035614013671875,1.2702166748046877,0.3119
6,29500,106.19469026548714,-0.04813232421875,0.7484265136718751,0.2994
6,30000,102.77725089854528,0.00851806640625,0.044681396484375,0.2872
6,30500,101.52610950278569,0.006973876953125,-0.2992572021484375,0.2753
6,31000,99.64123929504456,0.012193603515625,-2.0795391845703124,0.2637
6,31500,98.55600143551986,0.0025140380859375,-2.5335333251953127,0.2532
6,32000,101.23954081327162,0.05470458984375,1.4860998535156251,0.242
6,32500,107.87050359711556,0.02761962890625,1.3562811279296876,0.2312
6,33000,107.14285714286764,-0.0336077880859375,0.9544317626953124,0.2209
6,33500,110.3966061562738,-0.0154925537109375,0.7563671875,0.2111
6,34000,111.98099860587106,0.021783447265625,-1.11671630859375,0.2016
6,34500,112.3238475270404,0.0104058837890625,0.7641204833984375,0.1931
6,35000,114.75540190147288,0.0068353271484375,0.876041259765625,0.1848
6,35500,112.76192522560837,-0.0151336669921875,1.1168170166015623,0.1761
6,36000,112.41651615071189,0.0015631103515624,0.822161865234375,0.1677
6,36500,110.0585845223472,0.0136181640625,0.2259039306640625,0.1597
6,37000,107.02108087876124,-0.0051721191406249,-0.528929443359375,0.1521
6,37500,105.22290527131388,0.0099407958984375,-0.54515380859375,0.1451
6,38000,102.7665583957064,0.0314715576171875,-4.0798486328125,0.1384
6,38500,103.0927835051558,-0.0327301025390625,-6.681903686523437,0.132
6,39000,102.14601304438963,0.0112628173828124,-7.63428955078125,0.1251
6,39500,101.79176755448142,-0.0022149658203125,-1.7850079345703125,0.1187
6,40000,104.828061270731,0.028577880859375,3.830515747070312,0.1128
6,40500,107.04316271962958,0.0079425048828125,3.438328857421875,0.1072
6,41000,107.57220216606665,0.000775146484375,2.3948968505859383,0.1017
6,41500,108.51591729570389,-0.017435302734375,1.13647216796875,0.0965
6,42000,109.05764725292715,-0.0292822265625,-0.0061608886718749,0.0907
6,42500,108.81811895107175,0.0053656005859375,-3.5902886962890626,0.0851
6,43000,107.33452593917214,-0.02941650390625,1.2077325439453124,0.0799
6,43500,111.62630795215355,-0.0189013671875,2.3677038574218745,0.0747
6,44000,110.45514295103882,0.0136212158203125,2.146696166992188,0.0695
6,44500,113.07486631015742,-0.005833740234375,1.8312921142578125,0.0643
6,45000,112.19273743017,-0.037166748046875,1.4964416503906253,0.0587
6,45500,109.26530284152228,-0.018294677734375,1.274197998046875,0.0533
6,46000,104.688229248532,0.001124267578125,0.429171142578125,0.0479
6,46500,100.3937099592352,-0.0076580810546875,-0.2918896484375,0.0425
6,47000,98.98961603477512,0.029061279296875,-0.9597052001953126,0.0369
6,47500,97.56097560975464,-0.082186279296875,-3.606567993164063,0.0308
6,48000,100.11131118022509,-0.014432373046875,-1.897369995117188,0.025
6,48500,103.40278997856105,0.0269915771484375,1.9887670898437504,0.0191
6,49000,105.83928005813372,0.01000244140625,1.90579833984375,0.0132
6,49500,107.90930128541852,-0.019752197265625,1.6859332275390626,0.0074
6,50000,110.46847178731142,0.00774169921875,1.530655517578125,0.0016
6,50500,111.6384738856666,0.0111083984375,1.016444091796875,-0.0045
6,51000,109.7350649350658,0.010941162109375,0.8195941162109375,-0.0102
6,51500,108.90513424399217,0.04562744140625,0.715938720703125,-0.0158
6,52000,103.62694300517995,-0.0510980224609375,0.1957373046875,-0.0212
6,52500,98.06212610448004,0.0142218017578125,0.8126519775390625,-0.0263
6,53000,97.52286977079058,0.0164196777343749,0.4082122802734375,-0.0315
6,53500,97.72641360012756,0.0033782958984375,0.3442083740234375,-0.0364
6,54000,96.82030637318884,0.0269622802734375,0.190284423828125,-0.0409999999999999
6,54500,97.2447325769825,-0.05504150390625,-0.0114654541015624,-0.0452
6,55000,98.80867179100456,0.0299835205078125,0.093934326171875,-0.0491
6,55500,101.16185087896994,0.032225341796875,-1.811270751953125,-0.053
6,56000,103.54204509028636,0.0004675292968749,-3.531774291992188,-0.0565
6,56500,105.78646222886678,-0.0268682861328125,-1.2521710205078127,-0.0595
6,57000,108.83160415004131,-0.001298828125,1.2256024169921875,-0.0622
6,57500,111.73184357542011,-0.0223065185546875,1.1857415771484376,-0.0645
6,58000,111.77812057032703,-0.021566162109375,0.8232452392578125,-0.0666
6,58500,111.6265388386532,-0.0230120849609375,0.110203857421875,-0.0686
6,59000,109.4890510948901,-0.0040637207031249,0.1262371826171875,-0.0703
6,59500,106.38297872341091,-0.0580487060546875,0.5263800048828124,-0.0717
6,60000,101.767813794089,-0.0054827880859374,0.5575201416015625,-0.0731
6,60500,96.6081968403476,0.02084716796875,0.199002685546875,-0.0745
6,61000,91.93740450905842,0.0097735595703125,-0.646251220703125,-0.0757
6,61500,86.08321377331387,-0.0499755859375,-1.0359014892578124,-0.077
6,62000,83.86238559342814,0.0193048095703124,0.3686273193359375,-0.0784
6,62500,83.51796940331471,-0.008348388671875,0.5662445068359375,-0.0799
6,63000,85.5920114122725,-0.0500579833984375,0.6880346679687501,-0.0817
6,63500,85.2783361431719,-0.0023199462890624,0.416185302734375,-0.0834
6,64000,85.01348228042951,-0.0007708740234374,0.2357037353515625,-0.0855
6,64500,84.73624071605099,0.00492431640625,-1.14491943359375,-0.088
6,65000,84.26966292134959,-0.06136962890625,-4.250811767578125,-0.0909
6,65500,85.98387884709395,0.0294110107421875,-7.203665771484374,-0.0943
6,66000,88.43478260869557,-0.0127838134765624,-8.557759399414062,-0.0985
6,66500,91.96957139474242,0.0009973144531249,-2.0775891113281246,-0.1025
6,67000,97.08737864077752,-0.0421368408203125,4.426448364257814,-0.1071
6,67500,103.37622199079956,0.0207672119140625,3.5204309082031253,-0.1124
6,68000,108.56843381405844,-0.0059466552734375,3.1070050048828124,-0.1182
6,68500,111.04387702493509,-0.0283843994140625,2.6871978759765627,-0.1247
6,69000,111.10239196311365,-0.00169189453125,2.1618115234375,-0.1311
6,69500,106.49066181309898,0.013826904296875,1.5721234130859374,-0.138
6,70000,100.37575286053442,-0.0192498779296875,0.51540283203125,-0.1453
6,70500,94.48818897637086,-0.052581787109375,0.4393170166015625,-0.1529
6,71000,91.81078319408849,0.0102276611328125,0.1281988525390625,-0.1613
6,71500,89.75750148961706,0.02751953125,1.44089111328125,-0.1692
6,72000,88.9571965536188,0.0104913330078125,1.2294482421875002,-0.1775
6,72500,90.771558245083,-0.025926513671875,1.0472863769531249,-0.1859
6,73000,93.07185611863032,0.0106677246093749,0.24144775390625,-0.1943
6,73500,92.33047663435912,0.0281658935546875,-0.1181072998046875,-0.2027
6,74000,91.083460949461,-0.0077130126953125,-1.2384283447265625,-0.2118
6,74500,89.28571428571091,0.0283135986328125,-0.1885858154296875,-0.2202
6,75000,91.31604696673432,-0.038951416015625,0.868009033203125,-0.2285
6,75500,91.80743479844452,0.0181427001953125,0.8509051513671875,-0.2365
6,76000,93.132317934625,-0.0030816650390624,0.7369171142578126,-0.2443
6,76500,94.90414947827958,0.0005017089843749,0.6525402832031251,-0.2525
6,77000,96.15384615384252,-0.049110107421875,0.3918804931640625,-0.2603
6,77500,96.88082515223464,0.0358984375,-0.331300048828125,-0.2675
6,78000,98.93966798877616,0.0334088134765625,0.3854571533203125,-0.2742
6,78500,103.484028503338,0.03361083984375,0.5061682128906251,-0.2805
6,79000,105.74884957180636,0.0062188720703125,0.3813916015625,-0.2871
6,79500,105.1578966706066,-0.0282568359375,-0.444915771484375,-0.293
6,80000,104.181184668996,0.0007165527343749,-0.3432745361328125,-0.2984
6,80500,102.04081632652677,-0.0382366943359375,-0.8014752197265624,-0.3031
6,81000,97.82931354360096,-0.0046331787109375,-1.0051904296875,-0.3073
6,81500,96.77871967260964,-0.0703955078125,-1.1240997314453125,-0.3107
6,82000,95.47242727533283,-0.0727880859375,-2.0521258544921874,-0.3141
6,82500,93.92914262129422,-0.02124755859375,-4.987528076171875,-0.3169
6,83000,94.19152276295128,-0.0299853515625,-6.579903564453125,-0.3189
6,83500,92.77386052204444,0.02691162109375,0.1287554931640625,-0.3203
6,84000,95.52757185949037,0.033587646484375,2.2766101074218748,-0.3212
6,84500,98.60000000000086,-0.00834716796875,1.7202020263671876,-0.3215
6,85000,100.4244897959166,0.0019287109375,1.2649151611328124,-0.3216
6,85500,102.04081632653656,0.023533935546875,0.5496832275390624,-0.3211
6,86000,98.85956359479096,-0.060631103515625,-0.0997222900390625,-0.3203
6,86500,98.84678747940964,0.0012982177734375,1.8842089843750005,-0.3193
6,87000,99.12859901589432,0.0214892578125,1.5667541503906253,-0.3181
6,87500,99.98327647333883,-0.01657958984375,0.6004571533203126,-0.3167
6,88000,100.944342756424,-0.016171875,-0.36994873046875,-0.3153
6,88500,100.74911342397353,-0.0211083984375,-0.976107177734375,-0.3138
6,89000,103.27022375215851,-0.14277099609375,-2.525335693359376,-0.3125
6,89500,103.73869179138292,-0.0231207275390625,-0.8292510986328125,-0.3113
6,90000,108.07230510333568,0.006727294921875,1.856343994140625,-0.3104
6,90500,108.62875066579608,0.0221673583984375,1.5606561279296876,-0.3099
6,91000,109.83350794423816,-0.00138916015625,1.6070648193359374,-0.3097
6,91500,110.70148384922511,0.0086199951171874,1.31760498046875,-0.3099
6,92000,107.87930301742492,0.000103759765625,1.0463092041015625,-0.3105
6,92500,102.02609375643428,0.0172680664062499,0.4625994873046875,-0.3118
6,93000,96.30818619582811,-0.0448992919921875,0.4977838134765625,-0.3135
6,93500,90.8475833779198,0.0198388671875,-0.3092340087890625,-0.3155
6,94000,88.73942969518114,0.030546875,-0.7148675537109375,-0.3177
6,94500,88.48781245148312,0.0673461914062499,-3.3189489746093748,-0.3203
6,95000,87.719298245618,-0.038978271484375,-6.8176379394531255,-0.3233
6,95500,89.23511928246253,0.05157958984375,-4.129149169921875,-0.3265
6,96000,93.2766409003278,0.0619036865234375,2.744649658203125,-0.3299
6,96500,98.32611832611784,0.0162725830078124,2.0291314697265626,-0.3335
6,97000,101.31960856396825,0.0273565673828125,2.4275201416015624,-0.3369
6,97500,103.98613518197604,-0.0598004150390625,1.8509356689453127,-0.3403
6,98000,103.31174661507838,0.0244097900390625,1.807977294921875,-0.3434
6,98500,101.3209116427346,-0.0078125,1.1052880859375,-0.3465
6,99000,98.6123269461478,0.02089599609375,0.352144775390625,-0.3493
6,99500,96.83480770437568,-0.003831787109375,0.1260241699218749,-0.3519
6,100000,97.46753246753428,0.0565338134765625,1.0025396728515623,-0.3541
6,100500,98.5221674876787,-0.0470672607421875,1.002099609375,-0.3559
6,101000,97.59740259740344,0.0007196044921874,0.7557910156250001,-0.3576
6,101500,96.42515379357994,0.0149908447265624,0.59260009765625,-0.3589
6,102000,95.246107276185,-0.0102972412109375,0.2744049072265625,-0.3599
6,102500,94.18827477939976,0.03822021484375,-1.48104248046875,-0.3607
6,103000,94.04388714734722,-0.0794976806640625,-3.270721435546875,-0.361
6,103500,94.04388714733476,-0.002076416015625,-5.714644165039062,-0.3612
6,104000,95.17603667157488,0.007108154296875,-8.396055908203124,-0.3612
6,104500,97.30262421142608,-0.0228912353515624,-6.038487548828125,-0.3611
6,105000,100.96843853821116,0.032115478515625,4.4039599609375,-0.3611
6,105500,107.20656370657268,0.023604736328125,3.585950927734375,-0.3611
6,106000,108.1081081080957,-0.0422381591796875,3.078073120117188,-0.3612
6,106500,109.44486091931267,-0.020450439453125,2.570103759765625,-0.3613
6,107000,107.02700600277626,-0.001331787109375,1.0664465332031252,-0.3617
6,107500,102.72461764039755,0.0033508300781249,-0.1873101806640625,-0.3625
6,108000,99.06559861441804,-0.0025787353515625,-0.391544189453125,-0.3634
6,108500,96.828687754464,0.0483514404296875,2.17702392578125,-0.3646
6,109000,97.0873786407864,-0.0232147216796875,1.9054913330078125,-0.3663
6,109500,94.0970873786436,0.020841064453125,0.8031439208984374,-0.3684
6,110000,93.05787037036907,0.013167724609375,-0.368770751953125,-0.3711
6,110500,91.59292035397974,-0.0103558349609375,-0.9026104736328124,-0.3743
6,111000,88.49557522123932,-0.0709869384765625,-3.369230346679688,-0.3781
6,111500,86.85208596713201,0.005279541015625,-6.3272375488281245,-0.3825
6,112000,86.76002258610733,0.0236474609375,-1.262822265625,-0.3874
6,112500,88.08493427704245,0.0380450439453125,3.623490600585937,-0.3929
6,113000,93.02325581395613,-0.034144287109375,3.118946533203125,-0.3989
6,113500,95.37016738260414,0.0065881347656249,2.248585205078125,-0.4053
6,114000,97.54307194319382,-0.0053521728515624,1.215916748046875,-0.4122
6,114500,98.0505152987716,0.0113085937499999,0.0206402587890625,-0.4194
6,115000,97.8455780826107,0.0019482421874999,-0.9362591552734376,-0.4267
6,115500,98.26112875429608,0.0346649169921875,0.9964654541015624,-0.4342
6,116000,99.33774834436396,-0.022786865234375,1.827015380859375,-0.4419
6,116500,96.2028448393818,-0.0001336669921874,1.900612182617188,-0.4498
6,117000,96.80867894091593,0.0237335205078125,1.1906634521484376,-0.4577
6,117500,96.52930687811347,-0.0107275390625,0.374586181640625,-0.4655
6,118000,93.02325581395613,-0.020877685546875,-0.4264068603515625,-0.4731
6,118500,87.76744186045369,-0.000970458984375,-1.2677313232421876,-0.4807
6,119000,86.33969389782705,-0.002791748046875,-3.96610107421875,-0.4881
6,119500,86.17482982752449,-0.02334228515625,-3.976436767578125,-0.4953
6,120000,89.82035928143624,-0.021673583984375,2.4319970703125,-0.5025
6,120500,98.89994844748716,-0.038662109375,1.53798095703125,-0.5095
6,121000,96.58187599364229,-0.1701214599609375,1.016451416015625,-0.5165
6,121500,96.32760720995968,-0.2159814453125,0.6243798828125,-0.5237
6,122000,97.29496674569452,-0.1114373779296875,0.3350592041015625,-0.5309
6,122500,96.9324306161291,0.0341064453125,0.2627716064453125,-0.5382
6,123000,97.87928221860622,-0.0117279052734375,-0.5578070068359375,-0.5459
6,123500,98.2557163105397,0.0317523193359375,-4.03706298828125,-0.5536
6,124000,99.31475409835753,-0.00540771484375,-0.8328424072265624,-0.5611
6,124500,101.53056994818805,-0.1233984375,2.596610107421875,-0.5686
6,125000,104.26296022151529,-0.131995849609375,2.082454833984375,-0.5759
6,125500,105.91129123043665,-0.0389312744140625,1.8425396728515624,-0.5829
6,126000,106.3829787233895,-0.0051983642578125,1.0337750244140624,-0.5897
6,126500,100.99553012695829,0.0365234374999999,0.304775390625,-0.5963
6,127000,96.66056802467594,0.0171380615234374,-0.6967718505859375,-0.6023
6,127500,94.02989454736716,-0.1183111572265625,-2.075172729492188,-0.6078
6,128000,92.67188512738156,-0.118375244140625,-5.25575927734375,-0.6126
6,128500,92.16589861751808,-0.07537841796875,-0.8492492675781249,-0.6165
6,129000,94.377880184328,0.066090087890625,2.2573516845703123,-0.6194
6,129500,96.80977604311988,0.0841094970703125,2.4088098144531247,-0.6212
6,130000,98.57680820672674,0.0625079345703125,1.8946099853515623,-0.6217
6,130500,98.82878190341142,0.0329986572265625,0.6101470947265625,-0.6211
6,131000,96.30818619583694,-0.018544921875,-0.8373272705078125,-0.6192
6,131500,96.02527126805865,0.0260174560546875,-3.9702093505859377,-0.6161
6,132000,94.8353406593352,0.0223388671875,-7.0574462890625,-0.6119
6,132500,94.4732031079205,0.0224310302734375,-4.2875073242187485,-0.6067
6,133000,95.16877637131516,0.0458544921875,-6.9548767089843775,-0.6006
6,133500,96.61835748792566,0.0165374755859375,-5.860634765625,-0.5937
6,134000,99.30059845698057,0.0562109375,-4.89211669921875,-0.5859
6,134500,101.28576134607592,0.0257135009765625,-2.7335614013671874,-0.5777
6,135000,103.71436712693442,0.0672692871093749,6.774873046875,-0.5693
6,135500,104.40075495439,0.0360888671875,5.700872192382812,-0.5608
6,136000,104.1416023422974,0.0022747802734374,4.256318359375,-0.5525
6,136500,104.36555097656804,0.0123663330078125,3.081624755859375,-0.5445
6,137000,100.16694490817255,-0.0380059814453125,0.1162548828125,-0.5369
6,137500,95.1595411504842,-0.0171282958984375,-4.671619262695314,-0.5299
6,138000,92.36318278182924,0.0267401123046875,2.6891638183593747,-0.5237
6,138500,90.56002544124364,-0.000352783203125,3.5875579833984377,-0.5185
6,139000,90.22556390977934,-0.0471533203125,2.44243896484375,-0.5143
6,139500,90.45908889871686,0.0274102783203125,-0.813790283203125,-0.5111
6,140000,89.2522657608029,0.04057861328125,-2.62485595703125,-0.5091
6,140500,88.02940325387812,0.0046380615234375,0.6882562255859376,-0.5081
6,141000,88.36524300442171,-0.03353271484375,2.770977783203125,-0.5086
6,141500,88.98760742022999,0.0173669433593749,2.3240032958984376,-0.5101
6,142000,90.69882272259042,0.0208782958984375,1.3040826416015625,-0.5125
6,142500,92.57727109083456,-0.01763916015625,-5.354037475585936,-0.5157
6,143000,93.60374414977144,-0.0195831298828124,-4.9996234130859385,-0.5195
6,143500,96.66639826883348,0.0235052490234375,4.077467651367188,-0.5237
6,144000,100.5066317340744,0.0025433349609375,3.669213256835938,-0.5285
6,144500,100.82406668591103,-0.0040795898437499,2.917736206054688,-0.5337
6,145000,100.60606060606148,-0.026309814453125,1.7120251464843752,-0.5391
6,145500,100.41685144123429,-0.011959228515625,-0.0933807373046874,-0.5449
6,146000,97.56097560975464,-0.084722900390625,-1.483489990234375,-0.5508
6,146500,96.26078799250804,-0.1743524169921875,1.7410650634765623,-0.5567
6,147000,97.4698340874764,-0.2597735595703125,2.8798883056640623,-0.5624
6,147500,97.59756329716116,-0.1318896484375,2.16344970703125,-0.5681
6,148000,97.52723085043812,-0.0610150146484375,1.52065673828125,-0.5735
6,148500,98.84678747939316,0.0247625732421875,1.3647869873046874,-0.5783
6,149000,96.0056935749588,-0.0564959716796875,1.2338519287109375,-0.5828
6,149500,94.89637795275692,-0.0178009033203125,0.8430657958984376,-0.5871
6,150000,93.7834767558114,-0.04669189453125,0.3961883544921875,-0.5909
6,150500,93.93926231950948,-0.0125103759765625,0.4985650634765625,-0.5945
6,151000,97.87928221858807,-0.0905535888671875,0.7501263427734375,-0.5979
6,151500,97.87928221860597,-0.1726318359374999,0.809375,-0.6007
6,152000,99.81395298085194,-0.0667828369140624,0.6219793701171874,-0.6029
6,152500,100.1377926421412,0.0137988281249999,0.27415771484375,-0.6041
6,153000,99.62574257425544,0.0176739501953125,0.2434844970703125,-0.6045
6,153500,99.24831948077616,0.0423040771484375,0.3977978515625,-0.6042
6,154000,100.35088520322547,0.0943255615234375,0.271981201171875,-0.603
6,154500,102.3890784982913,-0.0253924560546875,-0.263509521484375,-0.601
6,155000,101.25555900300763,0.0317803955078125,-1.3696630859375,-0.5981
6,155500,100.38181818181984,0.0410369873046875,-4.7023645019531255,-0.5943
6,156000,100.361344537811,0.029447021484375,-7.834188842773438,-0.5892
6,156500,100.96604587780776,0.015777587890625,-8.150437622070314,-0.5835
6,157000,101.33087633087948,0.0319183349609375,-6.721698608398437,-0.5771
6,157500,101.0101010101117,-0.041219482421875,4.434323120117189,-0.5703
6,158000,104.7451750428948,-0.073798828125,4.134852905273437,-0.5632
6,158500,104.10910258818922,-0.1205865478515625,3.553218994140625,-0.5559
6,159000,103.37958834231335,-0.02979248046875,1.6378704833984377,-0.5486
6,159500,101.0570781996482,-0.023544921875,0.365797119140625,-0.5418
6,160000,97.2686004462553,0.0085931396484374,-2.2182995605468747,-0.5357
6,160500,94.63722397476124,-0.056424560546875,-5.851441040039062,-0.5303
6,161000,92.13626221434978,0.0121881103515625,3.0654272460937504,-0.5257
6,161500,93.72242968841148,0.0446624755859375,3.376505126953125,-0.522
6,162000,96.20984278879588,0.023946533203125,2.9844012451171875,-0.5196
6,162500,97.48115818607816,0.0481842041015625,2.306651611328125,-0.5183
6,163000,98.36065573770271,-0.038062744140625,1.3275775146484374,-0.5179
6,163500,96.6447912006882,0.019677734375,-0.099169921875,-0.5192
6,164000,96.30818619582972,0.0335797119140625,-2.4389276123046875,-0.5214
6,164500,96.30818619583084,-0.012435302734375,-6.6413085937500025,-0.5247
6,165000,96.49043333446258,-0.0361907958984375,-7.722620849609375,-0.5287
6,165500,97.87928221860622,-0.0678192138671875,-6.5112542724609375,-0.5332
6,166000,98.31059289171672,0.033397216796875,-5.430442504882811,-0.5379999999999999
6,166500,99.7462580185228,0.04142822265625,-4.5337072753906265,-0.5429
6,167000,101.81843257593565,0.0677142333984375,-0.759876708984375,-0.5476
6,167500,105.7079662605482,0.07844482421875,7.002846069335938,-0.5521
6,168000,108.89561071840174,0.029501953125,6.26014892578125,-0.5565
6,168500,108.58967584828343,-0.0511224365234375,4.4447955322265615,-0.5604
6,169000,108.52931429021622,-0.048331298828125,1.143057861328125,-0.5639
6,169500,104.34782608696888,-0.0533782958984375,-3.644874877929688,-0.5665
6,170000,97.77189990213186,0.0051049804687499,-4.626791381835939,-0.5687
6,170500,91.56892262491604,0.069892578125,0.7966796874999998,-0.5705
6,171000,84.88260254596976,0.1321527099609375,5.469010620117186,-0.5719
6,171500,85.71428571429406,-0.001622314453125,4.913560791015625,-0.5728
6,172000,85.94597253535852,0.0341485595703125,3.9810009765625,-0.5731
6,172500,85.71324939951316,0.0040753173828125,3.276230468750001,-0.5731
6,173000,84.26966292134959,0.0083673095703125,3.0018585205078123,-0.5731
6,173500,85.63536267344004,-0.014913330078125,2.541393432617188,-0.573
6,174000,85.39908793736286,0.0618890380859375,1.9054400634765625,-0.573
6,174500,84.78333473898144,0.0738995361328125,1.8626470947265623,-0.5733
6,175000,89.82035928143624,-0.045103759765625,0.99643798828125,-0.574
6,175500,90.11210661383222,0.0202020263671875,0.9630865478515626,-0.5751
6,176000,91.85555437890592,0.004937744140625,0.7006689453125,-0.5765
6,176500,94.1743732133246,-0.0174560546875,-0.0149365234375,-0.5788
6,177000,95.38950715421016,-0.0559814453125,-0.3356890869140625,-0.5815
6,177500,97.46543099771068,-0.03507568359375,-0.0022625732421875,-0.5847
6,178000,99.53630033795542,-0.0846685791015625,-0.5996130371093751,-0.5887
6,178500,101.36280512950106,-0.052171630859375,-1.06791748046875,-0.5929
6,179000,103.2239759243586,0.0034368896484375,-1.303723754882813,-0.5975
6,179500,104.80334102864164,0.013070068359375,-1.952318115234375,-0.6025
6,180000,105.99062260091748,0.038338623046875,0.7321514892578125,-0.6081
6,180500,108.18419233428592,0.053111572265625,1.0288775634765626,-0.6139
6,181000,106.38297872341091,-0.04419189453125,1.2572882080078127,-0.6201
6,181500,104.36613475177006,0.0194232177734375,0.31659423828125,-0.6268
6,182000,99.67479674796522,0.0375164794921875,0.30658935546875,-0.6336
6,182500,94.23918398501176,0.0188067626953125,-0.02554931640625,-0.6405
6,183000,85.34850640114108,-0.04301025390625,-4.296848754882813,-0.6478
6,183500,80.39224471051705,-0.0097576904296875,-5.946926879882812,-0.6553
6,184000,78.5508134440355,-0.0178106689453125,-1.097470092773437,-0.6627
6,184500,77.82101167315601,-0.0359564208984375,2.474830932617188,-0.6703
6,185000,81.09034699642831,-0.0039935302734374,1.7503851318359374,-0.6779999999999999
6,185500,83.41761252446342,-0.0238824462890625,0.4146820068359375,-0.6853
6,186000,85.78646616542159,0.036495361328125,1.8673883056640623,-0.6931
6,186500,90.225563909764,-0.11201416015625,1.8070135498046875,-0.7006
6,187000,90.31905063864276,-0.01107666015625,1.29734130859375,-0.708
6,187500,90.8332566908882,-0.022022705078125,0.19103515625,-0.7151
6,188000,91.65942454492448,0.0215771484375,-0.6976623535156251,-0.7218
6,188500,92.30769230769552,-0.0303411865234375,-1.9390167236328129,-0.7281
6,189000,93.82605965462488,0.025489501953125,-1.798349609375,-0.7340000000000001
6,189500,97.82457942725408,0.0414886474609375,1.2711517333984377,-0.7395
6,190000,100.82091621629677,0.0006311035156249,1.3845617675781252,-0.7443
6,190500,102.432424465727,-0.015570068359375,1.3844696044921876,-0.7483
6,191000,104.2228242161115,0.0125811767578124,1.052213134765625,-0.7518
6,191500,103.27022375214835,-0.0532879638671874,-0.0395703125,-0.7543
6,192000,99.41889197525664,0.007503662109375,-3.493336181640625,-0.7558
6,192500,97.42669919166056,0.033486328125,-4.297036743164063,-0.7567
6,193000,95.280979665209,0.0191473388671875,1.33406982421875,-0.7564
6,193500,93.00140181877312,0.033121337890625,1.7683160400390625,-0.7551
6,194000,92.735703245759,-0.0701483154296875,1.3673419189453124,-0.7531
6,194500,89.92752876523724,-0.0024414062499999,1.2517529296875,-0.7495
6,195000,88.60225159079027,0.00265869140625,0.857677001953125,-0.7449
6,195500,88.10572687224153,-0.0576397705078125,0.966375732421875,-0.7393
6,196000,84.49215463050133,-0.0009362792968749,0.5873864746093751,-0.7318
6,196500,84.91549025256961,0.007860107421875,-0.0710968017578125,-0.7231
6,197000,85.66029346376172,-0.032869873046875,-3.491356201171875,-0.7128
6,197500,86.70520231213783,-0.0761083984375,-2.94382568359375,-0.7014
6,198000,90.83898865993334,-0.0469683837890625,1.81609619140625,-0.6890000000000001
6,198500,98.15011431007127,-0.0281488037109375,2.192388916015625,-0.6748
6,199000,101.441212786391,0.0093988037109375,1.8970269775390625,-0.6597
6,199500,101.351351351354,-0.0871832275390625,1.4806683349609375,-0.6436
6,200000,101.1998293975066,-0.0888873291015625,0.8648272705078125,-0.6259
6,200500,99.6677740863828,-0.162056884765625,-9.695900268554684,-0.6075
6,201000,97.21401779016186,-0.0177191162109374,-8.707010498046875,-0.5878
6,201500,97.87541713014052,0.0039642333984375,-5.908948974609375,-0.5655
6,202000,96.7300753089298,-0.096617431640625,1.241590576171875,-0.5426
6,202500,93.25161226568524,0.0130120849609375,-2.579303588867188,-0.5185
6,203000,90.77155824509084,-0.1033740234375,-5.349251098632814,-0.4919
6,203500,87.48464512458763,-0.0063171386718749,-5.174180297851561,-0.4653
6,204000,85.27747682677193,-0.0913116455078125,-4.31983642578125,-0.4379999999999999
6,204500,84.50704225351683,-0.2032739257812501,-3.60773681640625,-0.4095
6,205000,85.37284764219825,-0.1203472900390625,6.2707470703125,-0.3809
6,205500,88.19951554142168,-0.0386517333984375,6.996643676757812,-0.3523
6,206000,92.1862215478006,-0.082161865234375,5.8854571533203135,-0.3239
6,206500,96.06675496688769,-0.030113525390625,4.9363726806640615,-0.2966
6,207000,99.3377483443827,-0.0939947509765625,4.395016479492186,-0.2704
6,207500,101.931378975205,0.0104418945312499,4.100617065429688,-0.2459
6,208000,107.2409457207736,0.0046899414062499,2.9793536376953127,-0.2234
6,208500,107.91113246690897,0.0364495849609375,2.50808349609375,-0.203
6,209000,104.99986286049057,0.04145263671875,1.198023681640625,-0.1865
6,209500,100.81728592068634,0.032803955078125,0.699453125,-0.1725
6,210000,94.93670886075022,-0.0168585205078125,0.2025341796875,-0.1608
6,210500,88.7195290475898,0.05489013671875,1.6024468994140626,-0.1537
6,211000,90.97178683386151,0.02897216796875,1.1962890625,-0.1491
6,211500,94.00503333481336,0.017471923828125,0.977945556640625,-0.147
6,212000,93.9328277356431,-0.01117919921875,0.804722900390625,-0.1491
6,212500,96.15384615384252,-0.18925048828125,0.4914886474609375,-0.1534
6,213000,96.15384615384252,-0.0420440673828124,0.0804913330078125,-0.1596
6,213500,96.99949887246834,-0.0180560302734375,0.0617230224609375,-0.1682
6,214000,98.08499106515625,-0.034346923828125,-0.9349407958984376,-0.1784
6,214500,99.19742642146768,-0.0119049072265625,-6.735648803710937,-0.1895
6,215000,101.351351351354,-0.0357220458984375,-9.268993530273438,-0.2013
6,215500,102.01737451738038,-0.002900390625,-7.722834472656251,-0.2133
6,216000,102.3173364909098,-0.011134033203125,-6.436670532226563,-0.226
6,216500,100.78350889526529,0.0229302978515625,-5.309802856445312,-0.2384
6,217000,99.47997034677935,0.0500262451171875,4.954360961914063,-0.2507
6,217500,99.02162827501093,0.0752093505859375,5.750833740234375,-0.2632
6,218000,98.1996726677594,0.0113262939453125,4.667228393554686,-0.2757
6,218500,95.5401761359216,0.00349853515625,1.825734252929688,-0.288
6,219000,89.32046332046329,-0.068941650390625,3.379682006835938,-0.3001
6,219500,81.0810810810801,-0.1060614013671875,3.006697998046876,-0.3115
6,220000,82.70158434296113,-0.0331732177734375,2.9307421875,-0.3231
6,220500,80.02571006687994,0.02075927734375,2.4961505126953125,-0.3344
6,221000,75.56675062972458,-0.0265826416015625,2.06690673828125,-0.3455
6,221500,77.45131286203323,0.0343267822265625,1.49068359375,-0.3558
6,222000,76.95771470090725,0.0278228759765625,1.36280517578125,-0.3659
6,222500,73.71007371006664,-0.0139764404296875,1.0871545410156251,-0.3759
6,223000,74.92810246908303,0.05462158203125,-0.092755126953125,-0.3857
6,223500,75.85188581909853,0.0107403564453124,-0.3694134521484375,-0.3947
6,224000,77.92207792207977,-0.0561871337890625,0.825531005859375,-0.4035
6,224500,82.9423435739252,0.025941162109375,0.7829840087890625,-0.4118
6,225000,86.61161356868132,0.050435791015625,0.8598199462890626,-0.4197
6,225500,89.1648972226085,0.080367431640625,0.6693212890625,-0.4267
6,226000,90.63444108760856,-0.0533795166015625,0.12298095703125,-0.4331
6,226500,92.134742268528,0.019552001953125,-1.1481243896484377,-0.439
6,227000,93.4446356186754,-0.0004217529296875,-2.751722412109375,-0.4444
6,227500,94.44590398852748,0.0048492431640625,-4.4829736328125005,-0.4488
6,228000,94.93670886076733,0.047952880859375,1.070408935546875,-0.4529
6,228500,99.87848101265467,0.0190960693359374,1.4057147216796877,-0.4565
6,229000,96.992971246008,0.0526458740234375,1.0832104492187502,-0.4601
6,229500,96.7795110884466,0.0343597412109375,-0.1281829833984374,-0.4635
6,230000,97.19268034606397,0.0147155761718749,-3.3193646240234376,-0.4666
6,230500,95.54140127389616,0.044508056640625,-4.2745947265625,-0.4698
6,231000,95.69164660347047,-0.02649169921875,-4.490845336914061,-0.4731
6,231500,95.14566046878124,0.036385498046875,-5.299108276367186,-0.4766
6,232000,94.66802006209583,0.0243243408203125,-6.937206420898438,-0.4803
6,232500,94.06708595387026,0.0100537109375,-5.860316772460937,-0.4841
6,233000,92.59259259260529,-0.01888671875,-4.0001513671875,-0.4881
6,233500,94.54537475864124,0.030904541015625,5.8040771484375,-0.4924
6,234000,94.97540201741066,0.0280560302734375,5.266200561523439,-0.4969
6,234500,96.42274817489972,0.00975830078125,3.5241778564453123,-0.5018
6,235000,97.9499568593581,0.0237445068359375,-1.0674371337890625,-0.5067
6,235500,95.69377990429608,-0.0406341552734375,-6.441619262695313,-0.5115
6,236000,93.5061963208396,-0.01759765625,-5.477455444335939,-0.5162
6,236500,92.077441522407,-0.0020458984375,-4.566505126953125,-0.5206
6,237000,90.72610604526407,-0.048614501953125,-3.812019042968751,-0.5249
6,237500,88.88888888887989,-0.0524591064453125,0.4165509033203125,-0.5289
6,238000,92.09381955144566,0.0228436279296875,6.026368408203125,-0.5327
6,238500,92.53638075671756,0.0242852783203125,2.2918194580078133,-0.5363
6,239000,93.45072489287936,9.399414062500064e-05,3.425894775390625,-0.5397
6,239500,95.11316481019465,0.0495355224609375,5.7549658203125,-0.5432
6,240000,95.38950715421016,-0.02828369140625,5.125317993164061,-0.5467
6,240500,98.10865632367678,0.0203955078125,4.2858349609375,-0.5503
6,241000,96.87404586159306,0.0267633056640625,2.231949462890625,-0.5539
6,241500,95.01040947236626,0.0088073730468749,-0.4655322265625,-0.5576
6,242000,93.30680138714312,0.0601239013671875,-6.05141845703125,-0.5614
6,242500,93.16770186335324,-0.02654541015625,-7.023364868164062,-0.5655
6,243000,93.49909400101843,0.007642822265625,-5.859645385742187,-0.5699
6,243500,94.33952001502846,0.0057855224609375,-4.883867797851564,-0.5747
6,244000,95.0871632329678,-0.0178436279296875,-4.07443359375,-0.5797
6,244500,95.0871632329678,0.0229852294921875,-3.40224609375,-0.5849
6,245000,96.29353392026508,-0.002718505859375,3.5172955322265627,-0.5902
6,245500,100.0791218768818,0.0340985107421875,6.3788439941406265,-0.5955
6,246000,101.54516300526292,0.0370953369140625,5.621607055664064,-0.6006
6,246500,104.63385077038322,0.017877197265625,5.5915039062500025,-0.6056
6,247000,106.3904316796126,-0.0306524658203125,4.79896728515625,-0.6103
6,247500,104.6362849988632,-0.0031469726562499,4.17996337890625,-0.6147
6,248000,104.34782608694832,-0.0233856201171875,3.15107421875,-0.6187
6,248500,97.2761502743866,-0.027503662109375,1.87042236328125,-0.6222
6,249000,94.30751862723449,0.0134381103515625,0.442508544921875,-0.6251
6,249500,91.35781313749338,0.0256536865234375,1.117383422851563,-0.6275
6,250000,87.71929824560344,0.057076416015625,1.999364013671875,-0.6293
6,250500,89.91477945238995,-0.0038006591796874,1.914117431640625,-0.6307
6,251000,89.61289846879825,0.056285400390625,1.4397564697265626,-0.6315
6,251500,89.54085867013625,0.0173828125,1.4096673583984374,-0.632
6,252000,89.82035928143624,-0.045030517578125,0.6910937500000001,-0.6322
6,252500,87.97003357852465,0.0103729248046875,-0.683656005859375,-0.6323
6,253000,88.30241073031151,0.0286248779296875,0.1936138916015625,-0.6323
6,253500,90.1736521418008,0.0071722412109374,1.160064697265625,-0.6323
6,254000,93.8061608557866,0.042509765625,1.0880865478515624,-0.6324
6,254500,95.0871632329678,0.0136383056640625,0.4405670166015625,-0.6326
6,255000,97.09589888291872,0.0161798095703125,-0.9198175048828126,-0.6329
6,255500,97.84218077475153,-0.0069781494140625,-0.8453253173828126,-0.6334
6,256000,98.40419336051626,-0.035133056640625,0.0250982666015625,-0.6341
6,256500,99.6100222267105,0.00025146484375,0.8832891845703126,-0.6349
6,257000,102.04081632651688,-0.0497442626953125,1.03049560546875,-0.636
6,257500,97.26570239747272,-0.0230255126953125,0.773621826171875,-0.6373
6,258000,95.48612708783776,0.0028887939453125,0.3158953857421875,-0.6388
6,258500,92.912782061256,-0.0075921630859375,-0.3281170654296875,-0.6405
6,259000,89.55223880597565,-0.05455810546875,-2.8052349853515626,-0.6421
6,259500,85.44352103120046,-0.00257568359375,-1.8394464111328124,-0.6437
6,260000,88.22276822277023,0.043336181640625,0.8367547607421876,-0.6451
6,260500,89.49739212897455,-0.0105889892578125,0.64315673828125,-0.6465
6,261000,87.71929824560344,0.00139892578125,1.0558306884765625,-0.6476
6,261500,92.81109751122202,0.023060302734375,-0.2287615966796875,-0.6484
6,262000,95.84431002742365,0.0329302978515625,-1.4312249755859376,-0.6487
6,262500,96.35420612038344,0.0037493896484375,-4.250552978515625,-0.6489
6,263000,95.13168936327484,-0.0109918212890625,-8.616390991210938,-0.6487
6,263500,92.30769230769552,-0.0073681640625,2.91765380859375,-0.6481
6,264000,96.60693426121148,0.005115966796875,2.68451416015625,-0.6471
6,264500,95.89496367030952,0.0134033203125,2.246500244140625,-0.6457
6,265000,95.38950715421016,-0.0056671142578125,1.6215112304687502,-0.6441
6,265500,95.18648723288284,-0.0064141845703124,0.2603271484375,-0.6421
6,266000,93.89671361503868,-0.0454693603515625,-3.435711669921875,-0.6397
6,266500,93.89671361502434,0.003328857421875,-7.753170166015625,-0.637
6,267000,95.26905019862488,0.025386962890625,-4.481422729492189,-0.6339
6,267500,99.3277505626869,0.0276849365234375,3.9781829833984377,-0.6307
6,268000,102.8915078212389,0.0086767578125,3.56553955078125,-0.6273
6,268500,102.0162532253614,0.0397271728515625,2.9497210693359377,-0.6237
6,269000,103.2702237521686,-0.0914434814453125,2.231136474609375,-0.6199
6,269500,98.5154133195506,0.0176690673828125,1.752535400390625,-0.616
6,270000,94.4257773758405,-0.0229364013671875,-0.1381988525390625,-0.6121
6,270500,90.72181399358988,-0.0641912841796875,-4.576173706054687,-0.6082
6,271000,84.03361344538497,-0.1005303955078125,-2.773453979492188,-0.6043
6,271500,83.61870478371934,-0.0154614257812499,0.6809991455078125,-0.6005
6,272000,83.82782112632583,-0.0132330322265625,-1.959879150390625,-0.5971
6,272500,84.74576271186797,-0.0426763916015625,-4.9123559570312505,-0.5933
6,273000,84.53712103126907,0.0135699462890624,-7.040543823242188,-0.5896
6,273500,84.04795392662024,8.789062500000078e-05,-5.7042663574218775,-0.5861
6,274000,83.58751548140278,0.0355401611328125,4.935044555664064,-0.5829
6,274500,86.45533141209458,-0.053095703125,4.220274658203125,-0.5799
6,275000,86.96199986595872,0.02573974609375,3.1349169921875,-0.5766
6,275500,87.83907529631384,-0.05218505859375,-0.09205078125,-0.5734
6,276000,89.15304606240689,-0.0455157470703125,-4.93907470703125,-0.5705
6,276500,88.64209507463177,0.00614013671875,4.3834765625,-0.5678
6,277000,91.73261649404176,0.0363494873046875,4.3056756591796885,-0.5651
6,277500,93.34299086249648,0.006688232421875,3.16969970703125,-0.5621
6,278000,93.69940835368357,0.0309173583984375,1.7017572021484375,-0.5594
6,278500,94.33962264151432,-0.0145794677734375,0.3562091064453125,-0.5567
6,279000,94.21314534521429,0.028931884765625,-0.7257159423828126,-0.5541
6,279500,97.28492158477778,0.0126763916015625,2.362298583984375,-0.5511
6,280000,98.28971227755164,-0.0113110351562499,2.1009265136718747,-0.5483
6,280500,97.743879127926,0.0053491210937499,2.1439099121093745,-0.5455
6,281000,99.6677740863828,0.0100299072265625,1.4109655761718751,-0.5425
6,281500,99.17651904120954,-0.0843243408203125,0.6946722412109375,-0.5393
6,282000,98.7928447150995,-0.0272698974609375,0.1113775634765625,-0.5362
6,282500,98.68421052631396,0.0114849853515625,-2.815517578125,-0.5331
6,283000,98.79885356956144,0.0115460205078125,-2.4381256103515625,-0.5301
6,283500,100.07748600946964,0.0389410400390625,1.7342761230468748,-0.527
6,284000,104.30573620751856,0.048922119140625,1.6372125244140625,-0.5239
6,284500,100.84033613446846,-0.0610003662109374,1.457633056640625,-0.5211
6,285000,101.12058044127484,-0.0033453369140625,1.2255499267578125,-0.5184
6,285500,98.59837893705571,-0.02938232421875,0.089520263671875,-0.5157
6,286000,96.22759572619076,-0.0514794921875,-0.6116308593750001,-0.5133
6,286500,95.0294993483731,0.02701904296875,-1.07098388671875,-0.5111
6,287000,91.88361408881798,-0.067183837890625,-4.552215576171875,-0.5094
6,287500,90.38930359362509,0.0365728759765625,-6.20340576171875,-0.5078
6,288000,90.39537192346155,0.04169921875,2.2480810546875,-0.5067
6,288500,91.63087154030194,0.0477679443359375,2.538908081054688,-0.5062
6,289000,92.02453987729444,-0.034559326171875,2.4560211181640623,-0.5059
6,289500,95.40231241151078,0.0065887451171875,2.1598431396484368,-0.5059
6,290000,94.7869914796604,0.02583251953125,1.1127966308593749,-0.5066
6,290500,93.6787443328756,-0.026641845703125,-0.02014892578125,-0.5075
6,291000,93.896713615022,-0.05032958984375,-1.9299853515625,-0.5089
6,291500,92.5077945846624,-0.023099365234375,-7.349180908203125,-0.5109
6,292000,91.2952764885856,0.0085784912109375,-8.035935668945314,-0.5131
6,292500,90.8107512465746,-0.018408203125,-6.730514526367188,-0.5159
6,293000,91.18541033434435,0.0033837890624999,-5.612483520507811,-0.5194
6,293500,89.97470869428102,-0.0437640380859375,-4.684715576171875,-0.5235
6,294000,92.41407333715658,0.02043212890625,1.928948974609375,-0.5275
6,294500,94.67649173256856,-0.0343060302734375,6.10320068359375,-0.5321
6,295000,96.39384116694502,-0.0560699462890625,4.938536987304689,-0.5375
6,295500,97.24473257697358,-0.0171624755859374,3.598135375976564,-0.5424
6,296000,96.78360432895816,-0.036824951171875,2.0884375000000004,-0.5477
6,296500,94.75420263516456,-0.0007348632812499,-4.0176678466796885,-0.5539
6,297000,93.2043876160204,-0.0208135986328125,-6.37627197265625,-0.5595
6,297500,92.86938711904249,0.0101971435546875,2.9859417724609374,-0.5656
6,298000,96.61835748792566,-0.0282952880859375,4.9416650390624985,-0.5309
6,298500,95.51239218758172,0.0163037109375,4.3969842529296885,-0.4957
6,299000,97.29479937239654,-0.0021264648437499,3.23429931640625,-0.4601
6,299500,97.14218592157788,-0.0397998046875,2.5913330078125,-0.4245
6,300000,95.57264853733147,-0.0300164794921875,2.497800903320313,-0.3882
6,300500,94.93670886076733,-0.0486431884765625,2.3363739013671867,-0.3513
6,301000,94.40769047050917,0.0049359130859374,2.1299566650390624,-0.3138
7,500,102.4615384615322,0.1284423828125,1.7696484375,0.0557
7,1000,103.85897435896996,-0.057762451171875,1.2242388916015623,0.0627
7,1500,106.63263016157649,-0.1383209228515625,1.961580810546875,0.0696
7,2000,109.1572480358445,-0.0239483642578125,1.4910882568359374,0.0768
7,2500,111.79297213087068,-0.0299749755859375,1.354151611328125,0.0841
7,3000,114.66501222582797,-0.0531939697265625,1.3110675048828124,0.0919
7,3500,117.68860723473738,0.0470111083984375,0.446142578125,0.1001
7,4000,120.94891873250972,-0.00562255859375,0.6144287109375,0.1086
7,4500,124.04056069191049,-0.0282257080078125,0.2212432861328125,0.1092
7,5000,126.7672900102076,-0.0358642578124999,0.3781939697265625,0.1113
7,5500,129.4141320902708,0.002366943359375,0.60414306640625,0.114
7,6000,130.15184381780904,0.021068115234375,0.528065185546875,0.1169
7,6500,129.91013325067655,0.0223858642578125,0.4992279052734375,0.1199
7,7000,126.87818510604694,0.0218603515625,0.43217041015625,0.1232
7,7500,122.07461421931326,-0.0054547119140625,0.3734259033203125,0.1266
7,8000,116.30198501565016,-0.024459228515625,0.6357781982421875,0.1299
7,8500,108.9944669407548,-0.0057464599609375,0.38633544921875,0.1331
7,9000,101.18772867999078,-0.0869097900390624,-0.6794854736328126,0.1363
7,9500,95.10092355624062,-0.1881707763671875,-0.602242431640625,0.1393
7,10000,93.02325581395613,-0.22679931640625,0.6691796875,0.1421
7,10500,94.70561005179673,-0.0907373046875,0.0955316162109374,0.1445
7,11000,102.164652927792,-0.159544677734375,-0.1456591796875,0.1464
7,11500,105.5968140418203,-0.2348297119140625,0.086927490234375,0.1477
7,12000,104.62172913397924,-0.21992431640625,1.0730047607421875,0.1483
7,12500,101.43797849642652,-0.1247332763671875,1.1057147216796874,0.1485
7,13000,97.5967426450029,-0.0127703857421874,-0.20625732421875,0.1483
7,13500,98.1996726677594,0.0131671142578125,0.277777099609375,0.1479
7,14000,102.05782869612116,0.0085894775390625,0.0452117919921875,0.1469
7,14500,103.33572472433042,-0.0799359130859375,-2.409684448242188,0.1459
7,15000,105.04073673996244,-0.11293212890625,-1.5010009765625,0.1445
7,15500,108.06574383246472,-0.0338519287109375,-0.12131591796875,0.1427
7,16000,111.37469548540788,-0.1588189697265625,0.2966162109375,0.1408
7,16500,114.14567109481308,-0.2318206787109376,-0.148468017578125,0.1389
7,17000,117.01089491188144,-0.2378118896484375,-0.287276611328125,0.1368
7,17500,119.09163346614056,-0.1770404052734375,1.1975543212890627,0.1345
7,18000,119.43019175782256,-0.206461181640625,1.1681524658203126,0.1323
7,18500,117.79072690294838,-0.13280517578125,0.028692626953125,0.1301
7,19000,114.687295135708,-0.088819580078125,-0.3031365966796875,0.1279
7,19500,113.5590628119811,-0.1232489013671875,-1.5863226318359374,0.1261
7,20000,111.99881720545064,-0.0361871337890625,-0.5578662109375,0.124
7,20500,113.68379645311856,-0.0128887939453125,-0.4466766357421875,0.1219
7,21000,115.83860454023956,0.0049932861328125,-0.5542205810546875,0.1201
7,21500,118.60341022095832,-0.007930908203125,0.1038238525390625,0.1184
7,22000,123.1425364758718,0.0144995117187499,-0.176982421875,0.1163
7,22500,121.45305818925222,-0.208515625,0.6124414062500001,0.1145
7,23000,122.26208588956364,-0.2486004638671875,1.3414935302734374,0.1127
7,23500,119.30268431001902,-0.1388604736328125,1.8232330322265624,0.1108
7,24000,113.42155009451876,-0.0417462158203125,0.8832281494140626,0.1089
7,24500,104.13626257383522,0.0700152587890625,-0.4046881103515625,0.1068
7,25000,98.69289880102352,0.0341204833984375,-0.1397796630859375,0.1047
7,25500,95.18288474809324,-0.2201397705078125,0.324412841796875,0.1023
7,26000,92.96947271045391,-0.1949688720703125,0.6919403076171875,0.1
7,26500,91.18541033436011,-0.031209716796875,-0.0382745361328125,0.0977
7,27000,91.40503373118432,-0.0424420166015625,-0.81294189453125,0.0953
7,27500,92.62499999999672,-0.0502728271484375,-1.0163604736328125,0.0932
7,28000,94.46623794212542,-0.1271746826171875,-0.46145751953125,0.0911
7,28500,96.62400715487904,-0.0464947509765624,-0.3713104248046874,0.0889
7,29000,99.33774834436396,-0.170318603515625,-0.3372076416015625,0.0869
7,29500,103.53059327189008,-0.2574957275390625,-0.2166949462890624,0.0851
7,30000,108.9561000429368,-0.200933837890625,-0.2593511962890625,0.0835
7,30500,113.28754914808648,-0.1424853515625,0.0756768798828125,0.0823
7,31000,116.43303571429009,-0.1405804443359375,0.895157470703125,0.0814
7,31500,118.37329826733097,-0.2112451171875,0.54476806640625,0.0809
7,32000,118.47723943991028,-0.3020782470703125,0.0944342041015625,0.0811
7,32500,117.86007657500572,-0.2245330810546875,-0.05125732421875,0.0816
7,33000,117.1861025111928,-0.1750244140625,-0.283897705078125,0.0824
7,33500,116.95906432748689,-0.10370849609375,-0.331844482421875,0.0836
7,34000,117.53443858499712,-0.052205810546875,-0.4593658447265625,0.0855
7,34500,117.46239562869008,-0.3074627685546875,-0.703326416015625,0.0877
7,35000,118.88062500000518,-0.3354534912109375,-1.7100030517578124,0.0902
7,35500,120.1452505009986,-0.102130126953125,-0.464671630859375,0.0933
7,36000,119.80933979511632,0.0203472900390625,0.178685302734375,0.0971
7,36500,117.20502604964288,-0.0128271484375,0.204658203125,0.1008
7,37000,112.81318681319502,-0.035726318359375,-0.291240234375,0.1051
7,37500,109.12620593052202,-0.21398681640625,-0.6511138916015625,0.1101
7,38000,107.26515285609344,-0.0876416015625,-0.4872869873046875,0.1145
7,38500,105.73981254072729,0.0909661865234374,0.4397894287109375,0.1195
7,39000,107.36564972532032,0.1156060791015625,1.9268487548828124,0.1247
7,39500,116.48731116692564,-0.009560546875,0.6190545654296875,0.1297
7,40000,115.8396361136023,-0.18909423828125,-4.388846435546874,0.1357
7,40500,117.4168297456044,-0.1822955322265625,2.3563690185546875,0.1415
7,41000,119.565639879491,-0.0569329833984375,0.835880126953125,0.1482
7,41500,121.96016094581422,-0.0789208984375,-7.416124877929687,0.1554
7,42000,122.17579720982016,0.07492919921875,-4.782540283203125,0.1623
7,42500,121.81781074674736,0.08152587890625,2.0368359375,0.1701
7,43000,123.0360276274111,0.075469970703125,3.483248291015625,0.1783
7,43500,121.02970297029604,0.082310791015625,3.1361492919921874,0.1859
7,44000,118.69857410451544,0.04252197265625,2.42153076171875,0.1946
7,44500,115.83011583010928,-0.026065673828125,1.1520709228515624,0.2035
7,45000,111.29987129987828,-0.1379974365234375,1.0534283447265629,0.2117
7,45500,109.879748121061,-0.148128662109375,1.21152587890625,0.2209
7,46000,109.53508853867665,-0.0822247314453125,1.2871978759765623,0.2301
7,46500,110.03810648347158,-0.065164794921875,0.7510607910156251,0.2386
7,47000,110.05575307045454,-0.0446563720703125,-2.021839599609375,0.2475
7,47500,110.95210759389984,-0.0610919189453125,-1.1526739501953125,0.2557
7,48000,112.5181638975026,-0.09846435546875,-0.4443365478515625,0.264
7,48500,113.5570700911088,-0.3007421875,-1.8720318603515629,0.2713
7,49000,114.46691431364944,-0.1455828857421875,-1.2392462158203124,0.2777
7,49500,115.37924543683116,0.2408160400390625,0.6292181396484375,0.2843
7,50000,115.45875209996872,0.5748504638671875,-0.5751507568359375,0.2897
7,50500,115.87877497643312,0.397279052734375,0.4163323974609375,0.2946
7,51000,118.88632604087228,0.4832763671875,0.5563555908203125,0.2993
7,51500,116.46310432569356,0.4181921386718751,0.7023144531250001,0.3029
7,52000,114.10982938996769,0.2100634765625,0.47969970703125,0.3055
7,52500,102.91595197256107,-0.013873291015625,0.429554443359375,0.3079
7,53000,96.19092683503632,-0.053692626953125,0.5249658203125,0.3093
7,53500,93.76615006005292,-0.0738800048828124,0.5276501464843749,0.3099
7,54000,93.21426523708033,-0.1266241455078125,0.512490234375,0.3103
7,54500,92.0245398773105,-0.059810791015625,0.061943359375,0.3102
7,55000,95.0866600992892,-0.03891357421875,0.2634814453125,0.3098
7,55500,99.45881710586886,-0.1131378173828125,0.4517724609375,0.3091
7,56000,103.37808912240308,-0.169993896484375,0.4608392333984375,0.3083
7,56500,106.50863823543594,-0.252008056640625,-0.2843353271484376,0.3073
7,57000,108.86585668236592,-0.18179931640625,0.00315185546875,0.306
7,57500,110.8083702711123,0.0272039794921875,-0.0179376220703125,0.3047
7,58000,113.12773620306362,0.167227783203125,-0.3394525146484375,0.303
7,58500,115.43320091058231,0.110963134765625,-2.2217010498046883,0.3013
7,59000,116.52710144268788,-0.150062255859375,-2.791279296875,0.2997
7,59500,117.81646714624566,-0.0203924560546875,-2.022310791015625,0.2982
7,60000,119.23553914606693,0.302919921875,-0.4596258544921875,0.2969
7,60500,119.34595524956951,0.2536065673828125,-0.1755419921875,0.2959
7,61000,120.58783521182858,0.1654388427734375,-0.05932373046875,0.2951
7,61500,120.34983205526636,0.1102838134765625,0.408819580078125,0.2943
7,62000,117.07775805446045,0.0380810546875,0.2210284423828125,0.2935
7,62500,111.31725417439966,-0.1082611083984375,0.4539501953125,0.2928
7,63000,102.68798614381672,-0.0765252685546875,0.155618896484375,0.292
7,63500,98.37368797054468,-0.0518756103515625,0.0718499755859375,0.2913
7,64000,96.2836857539694,-0.065628662109375,-0.70755615234375,0.2907
7,64500,96.03188758694364,-0.004510498046875,-1.398857421875,0.29
7,65000,97.30317682361506,0.035714111328125,0.1774755859375,0.2893
7,65500,100.16694490817255,0.0849896240234374,0.4606231689453125,0.2887
7,66000,106.27337898280926,0.018406982421875,0.2963177490234375,0.2879
7,66500,110.17822017060274,-0.041834716796875,-0.683880615234375,0.2871
7,67000,112.15752913962577,-0.02782958984375,-1.2175732421875,0.2863
7,67500,113.16108484627044,0.10885498046875,-3.8677154541015626,0.2853
7,68000,114.41018621125176,0.132613525390625,-2.5548718261718752,0.2842
7,68500,116.50133837190356,0.0824432373046875,-2.7302984619140624,0.2832
7,69000,119.19008270943974,-0.0072265625,-2.977565307617188,0.2821
7,69500,122.178155078127,0.1378643798828124,-2.7657928466796875,0.2809
7,70000,124.26985190845916,0.0456915283203124,-1.52667236328125,0.2796
7,70500,126.11068712335909,0.065152587890625,2.959386596679688,0.2783
7,71000,127.01244368159672,0.401875,1.8436206054687496,0.2773
7,71500,127.11864406779767,0.297491455078125,0.7202655029296875,0.2763
7,72000,124.98749075020444,0.154586181640625,-0.1846124267578124,0.2755
7,72500,121.55080955080864,0.18818603515625,-0.6980334472656249,0.2747
7,73000,118.0534759358306,0.13865478515625,-4.094093017578127,0.2739999999999999
7,73500,111.48804137040504,-0.0550030517578124,-3.2510113525390625,0.2735
7,74000,106.21565934066145,-0.03537109375,0.254833984375,0.2731
7,74500,103.25702725723896,-0.0551812744140625,3.887861328125,0.2729
7,75000,104.4065461657156,-0.1468328857421875,2.7972009277343752,0.2729
7,75500,108.96026216579084,-0.08865234375,2.6216210937500004,0.2729
7,76000,110.00800484196768,0.0678460693359375,2.4937744140625,0.2732
7,76500,105.82010582010444,0.0877215576171875,1.993330078125,0.2738
7,77000,103.8384504128494,-0.0282623291015624,1.4427081298828126,0.2747
7,77500,102.6526683751186,-0.0076275634765625,0.22075927734375,0.2761
7,78000,104.1911980060091,-0.0536309814453125,-0.3113446044921875,0.2778
7,78500,106.89739326155345,-0.110673828125,-0.9152850341796877,0.2799
7,79000,109.76805556486198,-0.116702880859375,-3.2347216796875,0.2822
7,79500,112.50576691097666,-0.134332275390625,0.21818359375,0.2845
7,80000,114.76958762128729,-0.0765374755859375,-1.1544061279296876,0.2871
7,80500,116.60838497773128,-0.1341436767578125,-3.0574566650390627,0.2898
7,81000,118.68872298624544,-0.273338623046875,-3.624024658203125,0.2925
7,81500,120.66791075051307,-0.0923870849609375,1.6130816650390625,0.2953
7,82000,122.0108457176054,0.029393310546875,1.1092626953125,0.2979
7,82500,122.34124444075012,0.1583526611328125,0.1932806396484376,0.3005
7,83000,120.86315585297278,0.2926605224609375,0.6124163818359375,0.3031
7,83500,116.3729128014822,0.1835382080078125,-0.4185589599609376,0.3055
7,84000,111.73029977541212,0.0637274169921875,-2.383427124023437,0.3077
7,84500,112.78195488721497,-0.046927490234375,-1.8875714111328128,0.3097
7,85000,112.31193368036948,-0.14108642578125,0.1577008056640625,0.3113
7,85500,102.56410256409622,-0.131259765625,3.247573852539063,0.3127
7,86000,98.71318024008852,0.0372222900390625,0.4764239501953125,0.3135
7,86500,95.78515650969057,0.1214923095703125,0.0998492431640624,0.3137
7,87000,93.55924380253455,-0.01698486328125,4.42809326171875,0.3137
7,87500,92.12077469023822,0.0070947265625,3.775623168945313,0.3137
7,88000,98.03921568627992,-0.0211279296875,2.1236956787109373,0.314
7,88500,96.47717647058953,-0.04007080078125,1.94397216796875,0.3147
7,89000,94.90650000000096,-0.058489990234375,1.5622222900390623,0.3157
7,89500,93.13712686567196,-0.0544354248046875,1.0156329345703126,0.3176
7,90000,89.55223880596044,-0.0212701416015625,-0.3309124755859375,0.3204
7,90500,89.99112545381689,-0.0152197265625,-3.5573199462890632,0.3242
7,91000,90.2890220537314,-0.1203240966796875,-3.0512976074218754,0.3291
7,91500,92.3899361799318,-0.1760430908203125,-0.894295654296875,0.3351
7,92000,98.23566943147397,0.1909954833984375,-0.3618249511718749,0.3424
7,92500,103.0927835051558,0.2444171142578125,-0.2559869384765625,0.3512
7,93000,106.28427286686328,0.141065673828125,-0.185970458984375,0.361
7,93500,107.693249655589,0.020191650390625,-0.1346185302734375,0.3719
7,94000,107.34635149024206,-0.0513677978515625,-0.1440960693359375,0.3851
7,94500,106.01879699247988,-0.089307861328125,-0.0691400146484375,0.3995
7,95000,103.51940457203509,-0.2440185546875,-0.0332073974609374,0.4149
7,95500,100.327547317846,-0.1013079833984375,0.0094305419921875,0.4309
7,96000,97.0873786407686,0.2830181884765625,0.5304406738281251,0.4473
7,96500,96.08264077669844,0.265823974609375,-1.4009710693359376,0.4642
7,97000,96.20833386837386,0.10580322265625,-2.4907293701171875,0.4809
7,97500,95.56562733028778,-0.0609295654296875,-0.821697998046875,0.4973
7,98000,94.50875580615838,-0.11091796875,-0.120113525390625,0.5131
7,98500,94.6372239747782,-0.0941888427734375,0.205908203125,0.5281
7,99000,96.13106420038892,-0.061214599609375,0.3342919921875,0.542
7,99500,98.61958266452696,-0.0760821533203125,0.0529852294921875,0.555
7,100000,100.97686870002047,-0.2124969482421875,2.3035546875,0.5667
7,100500,103.5070902416144,-0.1047027587890625,3.295040893554688,0.5773
7,101000,106.12978948961292,0.1723406982421875,2.5682745361328125,0.5866
7,101500,107.3510324483803,0.1691265869140625,2.80607421875,0.594
7,102000,106.19469026549784,0.0062664794921874,2.8044500732421875,0.6002
7,102500,102.85719481148251,-0.1298651123046875,2.0276220703125,0.6054
7,103000,101.26579947048216,-0.1635028076171875,1.1714599609374998,0.6095
7,103500,101.7726790374898,-0.045841064453125,-0.187305908203125,0.6124
7,104000,102.94116606835908,-0.0349566650390625,-0.03823486328125,0.6138
7,104500,104.63002231113045,-0.04394287109375,0.2335247802734375,0.6141
7,105000,107.32784940590712,-0.079754638671875,0.3196929931640625,0.6133
7,105500,109.65106694752882,-0.1489276123046874,0.39828857421875,0.6116
7,106000,111.86465689892763,-0.1860772705078125,0.31756103515625,0.6088
7,106500,113.2711858291978,-0.049051513671875,0.0837353515625,0.6052
7,107000,114.72275334609984,-0.002001953125,-2.719822998046875,0.6007
7,107500,114.72275334607497,-0.0705426025390625,-4.8420916748046885,0.5951
7,108000,114.72275334607492,-0.06705810546875,-2.7573999023437503,0.5889
7,108500,115.12351229251792,-0.095101318359375,-2.1467828369140625,0.5821
7,109000,115.1631477926938,-0.09469482421875,-3.027186889648438,0.5742
7,109500,114.26986710260852,-0.1072088623046875,-2.4856848144531254,0.5657
7,110000,112.6407732490037,-0.272816162109375,0.8411389160156251,0.5567
7,110500,113.1754460492769,-0.193458251953125,0.8286407470703125,0.5473
7,111000,114.05064935065091,0.0491162109375,0.5535833740234375,0.5378
7,111500,113.18780096307135,0.0521905517578125,2.148349609375,0.528
7,112000,112.57328715045742,0.043524169921875,1.2282421875000002,0.5184
7,112500,112.1550629821408,-0.0655926513671875,1.6057244873046874,0.5091
7,113000,111.03680849537336,0.0651959228515625,2.8879608154296883,0.5003
7,113500,110.71372195286932,0.1252874755859375,1.99459228515625,0.4925
7,114000,111.10156422869356,0.05551025390625,1.5422869873046876,0.4851
7,114500,110.33213070816149,-0.025684814453125,0.8660607910156249,0.4782
7,115000,112.4518306489534,-0.1318597412109375,-2.9325244140625,0.4721
7,115500,114.10815541550264,-0.050057373046875,-3.138167724609376,0.4668
7,116000,116.10584077737457,0.2198468017578125,-1.2577038574218748,0.4623
7,116500,119.31597537512958,0.2593316650390625,1.7638494873046875,0.4587
7,117000,120.81124785521396,0.0264666748046875,0.8142059326171875,0.4557
7,117500,122.81827534963458,-0.1212811279296875,0.78984619140625,0.4529999999999999
7,118000,124.2529831705238,-0.213526611328125,1.3757165527343749,0.4507
7,118500,124.3024018676536,-0.157813720703125,1.1123974609375,0.4489
7,119000,122.70261868338258,-0.111597900390625,0.838505859375,0.4476
7,119500,119.0569789154424,-0.1016070556640625,0.5846325683593752,0.4466
7,120000,113.85199240985776,-0.112908935546875,0.703272705078125,0.4456
7,120500,106.07758505492389,-0.105560302734375,0.7500115966796875,0.4443
7,121000,98.17812236193134,-0.0720123291015625,0.5801165771484376,0.4423
7,121500,93.30255233725283,-0.07271484375,0.2668475341796875,0.4399
7,122000,90.92014368610528,0.005166015625,-0.5040679931640625,0.4372
7,122500,91.18541033434435,-0.0072460937499999,-1.00716064453125,0.4342
7,123000,92.12620772663983,0.059998779296875,-0.4330889892578125,0.4307
7,123500,91.58529340783846,0.01877197265625,-0.5439971923828125,0.4267
7,124000,90.98570939911184,-0.1107757568359375,-0.961676025390625,0.4222
7,124500,94.63722397476124,-0.223123779296875,0.21687255859375,0.4172
7,125000,102.3738574779716,-0.0323077392578124,0.3571295166015625,0.4113
7,125500,107.91081382385543,0.231806640625,0.1173626708984375,0.4049
7,126000,109.31291653443228,0.165919189453125,-0.496612548828125,0.3977
7,126500,107.94994786234908,0.099024658203125,-0.8126470947265625,0.3899
7,127000,105.7229813664603,-0.010240478515625,-2.1034197998046875,0.3813
7,127500,103.80107206671092,-0.0746697998046875,-1.6740765380859377,0.372
7,128000,102.80115802851851,0.041129150390625,-3.18103515625,0.3619
7,128500,103.17091698318116,0.107850341796875,-1.1608465576171876,0.3517
7,129000,105.26315789474856,-0.0193359375,-4.1607171630859385,0.3412
7,129500,108.26610830874786,0.105511474609375,-3.21462646484375,0.3303
7,130000,110.18153117600536,0.1202410888671875,-2.634371948242188,0.3198
7,130500,112.61669967683298,0.0658953857421875,2.000751953125,0.3101
7,131000,115.87166874680136,0.024068603515625,2.405162963867188,0.3011
7,131500,118.2834688138142,0.0580938720703125,0.953299560546875,0.2929
7,132000,117.96854979613887,0.0038568115234375,-1.3131707763671876,0.2857
7,132500,113.92625109745308,0.01392578125,-3.3807501220703124,0.2799
7,133000,106.13413197173064,-0.0237335205078125,-3.58884033203125,0.2755
7,133500,97.80754124116945,-0.1687957763671875,-1.6182012939453123,0.2724
7,134000,89.55223880596044,-0.1671917724609375,-3.4939111328125003,0.2709
7,134500,90.71519489049317,0.2676190185546875,-3.0262164306640624,0.2711
7,135000,90.33386176499629,0.312999267578125,-2.344884643554688,0.2731
7,135500,89.27767201055228,0.2685772705078125,-0.4810302734375,0.2778
7,136000,86.70520231213783,0.2612139892578125,4.3747229003906245,0.2843
7,136500,94.01835675634622,0.2736981201171875,5.065444946289063,0.2927
7,137000,99.48426923702098,0.1643048095703125,4.118264770507812,0.3029
7,137500,100.97966101695567,-0.032578125,3.739778442382813,0.3139
7,138000,99.728947368416,-0.0875677490234375,3.0669927978515625,0.3255
7,138500,98.68421052630592,-0.1181402587890625,2.5259692382812498,0.3377
7,139000,97.74301388652016,-0.1163751220703125,2.072024536132812,0.3502
7,139500,97.36731795648254,0.1019708251953125,1.7366741943359374,0.3631
7,140000,97.65627482759425,0.1386077880859375,1.4876434326171877,0.376
7,140500,98.72008903728556,-0.0097760009765625,1.266165771484375,0.3885
7,141000,100.76378739652024,-0.143162841796875,0.89808349609375,0.4003
7,141500,103.87665521415812,-0.1790679931640625,-0.1146319580078125,0.4115
7,142000,106.00706713780345,-0.24461181640625,-0.6208874511718752,0.4218
7,142500,108.50207405133008,-0.247021484375,-1.7664996337890626,0.4319
7,143000,110.92401387432942,-0.23913330078125,-1.5804541015625002,0.4405
7,143500,111.96643143237326,-0.0416082763671875,-0.84044189453125,0.4485
7,144000,112.60361183332807,0.0856024169921875,-0.305587158203125,0.4555
7,144500,111.46269733374214,0.0406256103515624,-0.0664544677734375,0.4621
7,145000,109.34756158371454,-0.0441967773437499,0.3257733154296874,0.4678
7,145500,105.78041110249616,-0.0955841064453125,0.3020068359375,0.4727
7,146000,101.18043844857328,-0.06534912109375,0.76143798828125,0.4767
7,146500,89.82035928143624,-0.1015948486328125,1.2146246337890627,0.4797
7,147000,86.2397874626306,-0.07046630859375,1.044012451171875,0.4819
7,147500,83.22877794836991,-0.1025238037109375,1.4232360839843752,0.4837
7,148000,79.89347536616884,-0.0701043701171875,1.859176025390625,0.4853
7,148500,79.22249582470201,-0.05695068359375,1.4972668457031248,0.4869
7,149000,78.64441900342193,-0.154764404296875,1.031689453125,0.4884
7,149500,79.05138339920794,-0.0031384277343749,-0.271561279296875,0.4899
7,150000,81.36861813364348,0.1946612548828125,-0.1097418212890625,0.4909
7,150500,83.57828159737541,0.156644287109375,-0.054088134765625,0.4918
7,151000,85.83690987123614,0.1052496337890624,-0.010302734375,0.4927
7,151500,89.67371632452576,0.090675048828125,0.0431243896484375,0.4935
7,152000,92.46043736072616,0.062513427734375,0.1585894775390625,0.4945
7,152500,95.426270821807,0.0464385986328125,-0.3184295654296875,0.4958
7,153000,98.91702821781053,0.0784930419921875,-1.7176104736328126,0.4976
7,153500,103.11337511311216,0.1047955322265624,-1.8849505615234368,0.5
7,154000,106.57193605684051,-0.00509521484375,-4.611611328125,0.5031
7,154500,109.96503006500458,-0.0665936279296875,-3.1487841796875,0.5067
7,155000,113.11520785279416,0.1604229736328125,-2.073434448242188,0.5109
7,155500,116.5416376480114,0.2550299072265625,-1.3958038330078124,0.5155
7,156000,119.42430927616778,0.20225830078125,-0.926455078125,0.5204
7,156500,121.72338250329231,0.1358416748046875,-0.3735217285156249,0.5256
7,157000,120.4149762940474,0.0384722900390625,-0.6870947265625,0.531
7,157500,114.52621689503746,-0.0458062744140625,-0.335948486328125,0.5364
7,158000,105.59220058917728,-0.1244775390625,0.375323486328125,0.5415
7,158500,98.50657052042558,-0.2077624511718748,2.1601153564453126,0.5465
7,159000,93.82277493587635,-0.138245849609375,2.050772705078125,0.5511
7,159500,96.3081861958193,-0.062216796875,1.6192590332031251,0.5551
7,160000,92.8949412312991,-0.03239990234375,1.4688220214843748,0.5584
7,160500,90.84178645257464,0.0086627197265625,1.3391009521484376,0.5607
7,161000,89.10247005185045,-0.1103814697265625,1.1529638671875,0.5623
7,161500,84.62623413258748,-0.340914306640625,0.9727020263671876,0.5626
7,162000,83.21927945811314,-0.0016448974609375,0.8668768310546875,0.5618
7,162500,82.692087305304,0.1893298339843748,0.7017590332031249,0.56
7,163000,84.38818565400695,0.153660888671875,0.4958453369140625,0.5573
7,163500,86.67329015798346,0.051553955078125,-0.186776123046875,0.5539
7,164000,90.85897062039612,0.162109375,-4.494976806640627,0.5497
7,164500,96.82911901049052,0.069111328125,-6.259396362304687,0.545
7,165000,104.64929669642277,-0.0480035400390625,2.4503594970703126,0.54
7,165500,111.864917456526,-0.0034820556640625,-1.921429443359375,0.5348
7,166000,113.02458001000107,-0.085574951171875,-3.0516766357421874,0.5295
7,166500,115.96042255617957,0.0498870849609375,-2.572169799804688,0.5243
7,167000,115.15719063545528,0.3258831787109375,-1.5946466064453126,0.5195
7,167500,108.69565217390893,0.2352154541015625,1.5643389892578123,0.515
7,168000,109.82083134256092,0.1497418212890625,1.4642132568359376,0.5111
7,168500,108.40748440749088,-0.078043212890625,1.2425079345703125,0.5079
7,169000,104.97670083876808,-0.1017498779296875,1.0572869873046875,0.5058
7,169500,100.14320228420124,-0.092423095703125,0.875560302734375,0.5046
7,170000,95.08556519069332,-0.0563165283203125,0.68652587890625,0.5044
7,170500,90.36144578313429,-0.0887896728515625,0.56898193359375,0.5051
7,171000,89.2717536813971,-0.1534368896484375,0.5204058837890625,0.5067
7,171500,89.26520292748158,-0.128240966796875,0.6141021728515624,0.5092
7,172000,89.97152037388622,-0.1073583984375,0.561513671875,0.5128
7,172500,91.46341463415344,-0.07331787109375,0.551845703125,0.5174
7,173000,94.20847300889724,-0.0471337890625,0.5338836669921875,0.5231
7,173500,97.15639810425716,-0.1195404052734375,2.342060546875,0.5297
7,174000,100.81851179673356,-0.152393798828125,2.67045654296875,0.5369
7,174500,104.802373007054,-0.166590576171875,1.881728515625,0.5446
7,175000,108.3140895925084,0.1011456298828124,1.2070751953125,0.5527
7,175500,111.31237877842996,0.42784912109375,1.7839947509765626,0.5612
7,176000,114.25003309650292,0.398017578125,1.0906658935546876,0.5699
7,176500,116.54642006959024,0.2394580078125,0.7062322998046876,0.5785
7,177000,117.99581692912771,0.2062530517578125,0.4805877685546875,0.5873
7,177500,117.02150311901244,0.3798455810546874,0.3946063232421875,0.5961
7,178000,115.12684871421212,0.279547119140625,-0.0949267578125,0.6048
7,178500,112.57035647281624,0.036182861328125,-0.9419268798828124,0.6131
7,179000,106.93426754552787,-0.1263031005859375,-0.892322998046875,0.6213
7,179500,101.08479009546316,-0.23878173828125,-0.817554931640625,0.6288
7,180000,95.45878489326545,-0.334212646484375,-0.2960736083984375,0.6357
7,180500,88.88888888889484,-0.2866473388671875,-0.121729736328125,0.6418
7,181000,89.4050008279454,-0.243017578125,-0.0752691650390625,0.6474
7,181500,87.95619775805271,-0.205111083984375,-0.0416485595703125,0.6523
7,182000,86.49975574011387,-0.2370855712890625,-0.03858154296875,0.6563
7,182500,84.26966292134959,-0.2267547607421875,-0.175062255859375,0.6595
7,183000,83.25842696628865,-0.27302734375,-0.228897705078125,0.6617
7,183500,82.63925369078578,-0.1659332275390625,-0.19670166015625,0.6629999999999999
7,184000,81.96721311475733,0.0151763916015625,-0.1068902587890625,0.6635
7,184500,81.87864826784691,0.0743511962890624,-0.1007696533203125,0.6632
7,185000,82.69575549768604,0.0328729248046874,-0.142894287109375,0.6622
7,185500,84.15147265076202,0.064906005859375,0.0244091796875,0.6608
7,186000,86.40464651935913,0.1849432373046874,0.1502764892578125,0.6593
7,186500,88.99430575327536,0.212904052734375,0.2839617919921875,0.6578
7,187000,92.00334460871905,0.01530517578125,-0.467904052734375,0.6564
7,187500,95.53266189462988,-0.0598553466796875,-1.7913836669921874,0.6553
7,188000,100.0267905088466,0.01723388671875,-4.953102416992189,0.6545
7,188500,106.57193605684051,0.4677618408203125,-0.104305419921875,0.6539
7,189000,112.04913597050164,0.7403167724609376,-2.644244384765625,0.6537
7,189500,113.5293118096804,0.6690283203125,-0.9079571533203126,0.6541
7,190000,117.05390499911688,0.4952880859375,0.0546661376953125,0.6554
7,190500,117.01491170848914,0.1717095947265625,0.0948736572265625,0.6575
7,191000,114.74018379281816,-0.0782122802734375,0.109129638671875,0.6608
7,191500,110.50389610390408,-0.129954833984375,0.131160888671875,0.665
7,192000,105.52154420921347,-0.180230712890625,0.2323297119140625,0.6703
7,192500,101.53542592760328,-0.3095306396484375,0.835247802734375,0.6763
7,193000,99.31443270757909,-0.286180419921875,1.5902337646484377,0.6829
7,193500,99.17355371900528,0.135987548828125,2.4245697021484367,0.6899
7,194000,99.17355371900528,0.3765008544921875,1.1087225341796876,0.6971
7,194500,100.0279720279766,0.1042230224609375,-0.2253094482421875,0.7046
7,195000,102.68628762541628,-0.1248895263671875,-3.747384643554688,0.7123
7,195500,105.46297385114728,0.0872888183593749,1.763369140625,0.7199
7,196000,108.78127157805596,0.406798095703125,1.6771118164062502,0.7273
7,196500,113.06829575729994,0.3550390625,1.356298828125,0.7345
7,197000,115.58981048393622,-0.0016046142578125,1.3087481689453124,0.7409
7,197500,116.63748367683712,-0.223494873046875,2.0067913818359377,0.7464
7,198000,116.61562383802836,0.0646990966796875,1.7684228515625002,0.7511
7,198500,114.70244471548683,0.30864013671875,1.2035015869140624,0.7548
7,199000,110.00274909693933,0.1573272705078124,0.506510009765625,0.7575
7,199500,104.52961672474676,-0.227786865234375,-0.4103521728515625,0.7593
7,200000,102.5757854560808,-0.4155169677734375,-0.8536236572265625,0.7602
7,200500,101.87058585741622,-0.51893798828125,-0.700042724609375,0.7605
7,201000,101.37031330250969,-0.5843365478515625,-0.28988525390625,0.76
7,201500,101.71977955110428,-0.5947515869140625,-0.32242431640625,0.759
7,202000,103.84297066687324,-0.5102600097656249,-0.89471435546875,0.7571
7,202500,106.4630519331824,-0.439832763671875,-0.4445697021484375,0.7543
7,203000,107.52688172043152,-0.4216778564453125,-0.6848858642578124,0.7503
7,203500,106.27728613570372,-0.296297607421875,-0.880242919921875,0.7452
7,204000,104.05797985962448,-0.2634606933593749,-0.6684039306640626,0.7390000000000001
7,204500,101.36622869929128,-0.249508056640625,-0.486763916015625,0.7319
7,205000,98.89439930213742,-0.2285980224609375,-0.328057861328125,0.7241
7,205500,96.92736140815956,-0.10468994140625,-0.19536865234375,0.7155
7,206000,95.08716323295069,-0.0500811767578125,-0.1646044921875,0.706
7,206500,94.48464551625298,0.1358453369140625,-0.4634222412109376,0.6959
7,207000,95.0006008893148,0.1495758056640625,-0.6912768554687501,0.6851
7,207500,95.97481040922764,0.052601318359375,-0.61191650390625,0.6734
7,208000,97.08333001743988,0.0721087646484374,-0.90593017578125,0.6609
7,208500,98.5221674876787,-0.0156756591796875,-0.9950927734375,0.6476
7,209000,100.62242828165276,-0.037110595703125,0.2451806640625,0.6336
7,209500,104.98460623188085,-0.084261474609375,1.0077203369140624,0.6191
7,210000,108.86027441746526,-0.11559814453125,1.881661987304688,0.6043
7,210500,111.35522592814726,-0.1312030029296874,1.896619873046875,0.5895
7,211000,113.10631506144578,-0.0161920166015624,1.1836865234375,0.5748
7,211500,113.96194832649164,0.0287664794921875,0.6816510009765626,0.5606
7,212000,113.31652924339517,0.0269000244140625,0.8023199462890626,0.547
7,212500,111.83617520612812,-0.0539483642578125,0.6663671875000001,0.5341
7,213000,110.53456022234288,-0.0842364501953125,-4.119175415039062,0.5221
7,213500,109.3621072675367,0.24771484375,-2.688771362304688,0.5109
7,214000,108.74484290703072,0.3680841064453125,-1.7041143798828124,0.5007
7,214500,109.4890510948901,0.159964599609375,-0.4823394775390625,0.4915
7,215000,111.08191403080347,0.047860107421875,0.0770782470703125,0.4834
7,215500,113.66013071896715,0.2554034423828125,-0.0377520751953125,0.4764
7,216000,114.62000355560416,0.3020556640625001,-0.0653179931640625,0.4703
7,216500,114.72275334607492,0.110987548828125,2.4507183837890625,0.4651
7,217000,113.38151256873827,-0.095833740234375,-0.5120367431640624,0.4606
7,217500,108.50851450360364,-0.203216552734375,-2.716828002929688,0.4569
7,218000,101.54549469964373,-0.151668701171875,0.1824444580078125,0.4539999999999999
7,218500,93.85159952606762,0.0856597900390625,1.79492431640625,0.4517
7,219000,94.7867298578142,0.0471893310546875,1.3461322021484374,0.4501
7,219500,94.41741929715047,-0.033267822265625,1.054874267578125,0.4491
7,220000,95.38824383164,-0.1570758056640624,0.6517407226562499,0.449
7,220500,96.7577487765098,-0.0340936279296875,0.2269580078125,0.4495
7,221000,98.17243148315308,0.2433001708984376,0.035733642578125,0.4508
7,221500,99.83361064891864,0.1360418701171875,0.08271484375,0.4527
7,222000,102.33285820560508,-0.0541748046875,0.212864990234375,0.4552
7,222500,105.11464692592632,-0.0313970947265625,0.17093994140625,0.4581
7,223000,107.59317638682914,0.3311669921875,0.1378387451171875,0.4615
7,223500,109.857061025489,0.3759515380859375,0.2450201416015625,0.4652
7,224000,111.4173596959852,0.0895684814453124,0.3219927978515625,0.4695
7,224500,112.48418922337444,-0.163880615234375,0.449691162109375,0.4741
7,225000,112.80440105574912,-0.1709796142578125,0.4390277099609376,0.4791
7,225500,112.57035647279224,-0.163585205078125,1.0673773193359375,0.4843
7,226000,111.68294052395642,-0.1846228027343748,2.29406982421875,0.4896
7,226500,108.94586159758455,-0.220699462890625,0.5984252929687499,0.4949
7,227000,105.99665240840068,-0.135015869140625,-6.421565551757812,0.5
7,227500,105.26315789474856,-0.0502783203125,-3.9873345947265615,0.5046
7,228000,110.32045057292189,0.0390960693359375,-2.144000244140625,0.5086
7,228500,114.6633992251706,0.211927490234375,1.7112982177734375,0.5116
7,229000,117.94886937953852,0.3927410888671875,1.5481201171875,0.5133
7,229500,118.54526744159227,0.1550115966796875,1.788863525390625,0.5138
7,230000,118.57707509882084,-0.0814898681640625,2.732265014648437,0.5129
7,230500,116.51837524177104,-0.1808245849609375,1.80717041015625,0.5103
7,231000,113.29059178927528,-0.218118896484375,0.8854010009765625,0.5062
7,231500,109.99267220322218,-0.24172119140625,0.86905029296875,0.5003
7,232000,107.78191118344024,-0.2941131591796875,0.6020428466796874,0.4929
7,232500,107.42824107529994,-0.182821044921875,0.4873681640625,0.484
7,233000,108.74683858171022,0.1404144287109374,0.0830340576171874,0.4736
7,233500,110.73122536448192,0.1677734375,0.118197021484375,0.4619
7,234000,113.02666460992816,-0.0029327392578125,-0.1468756103515625,0.4491
7,234500,115.2842199977466,-0.0843286132812499,-3.06712158203125,0.4352
7,235000,117.99578157956284,0.1536083984375,-2.2476794433593748,0.4205
7,235500,119.8052949492235,0.27259033203125,-1.48213623046875,0.4051
7,236000,121.520310633218,0.0670635986328125,-0.282064208984375,0.3893
7,236500,123.79045712379268,-0.024852294921875,0.4206207275390625,0.3736
7,237000,124.89741708949056,-0.124156494140625,0.5517572021484375,0.3579
7,237500,124.5819276127172,-0.1701690673828125,0.52018310546875,0.3422
7,238000,120.81177537581677,-0.1732373046874999,0.5758483886718749,0.3269
7,238500,113.9330167149774,-0.1612823486328125,0.6586859130859375,0.3121
7,239000,96.77419354840411,-0.213585205078125,0.5181085205078125,0.2982
7,239500,88.90503045342187,-0.184627685546875,0.4420416259765625,0.2851
7,240000,83.53330879646367,-0.1577911376953125,0.2695526123046875,0.273
7,240500,80.97165991902997,-0.1189044189453125,0.135172119140625,0.2621
7,241000,82.35456179548275,-0.0098291015625,0.27524658203125,0.2523
7,241500,83.19362989405711,-0.0225982666015625,0.470189208984375,0.2438
7,242000,83.79888268156328,-0.0771636962890625,0.2412542724609375,0.2362
7,242500,85.4308060654499,0.037392578125,-0.2178033447265625,0.2297
7,243000,86.75540681866194,0.265003662109375,-0.1604742431640625,0.2243
7,243500,90.33432132271577,0.25635986328125,0.222818603515625,0.2197
7,244000,97.87515502273492,0.1452685546875,0.1331024169921875,0.2159
7,244500,101.69491525423176,-0.0321282958984375,0.1697296142578124,0.2127
7,245000,104.68389237880682,-0.0090826416015625,0.079669189453125,0.2102
7,245500,105.63325563325444,-0.01486083984375,-0.0985833740234375,0.2082
7,246000,105.0954320064288,-0.0169012451171874,-1.7280926513671877,0.2067
7,246500,105.89915166447176,-0.0267431640625,-1.8022998046875,0.2057
7,247000,107.35582656869362,-0.11386474609375,-0.1902362060546875,0.205
7,247500,108.77658094519774,-0.1485662841796875,-0.3111993408203125,0.2045
7,248000,111.29849920103536,0.0047418212890625,-0.4659930419921875,0.2042
7,248500,113.94167203907504,0.11160888671875,-0.42107177734375,0.2037
7,249000,115.89358753337808,0.1231549072265625,-0.4999139404296875,0.2031
7,249500,117.3851294903856,0.1703619384765625,-1.33475341796875,0.2023
7,250000,119.34595524956951,0.12392822265625,-0.5576885986328125,0.2013
7,250500,120.48192771085364,0.0362506103515625,0.0090911865234375,0.2001
7,251000,120.43074100006224,-0.0629168701171875,-0.85011962890625,0.1985
7,251500,119.58781375981032,-0.13597900390625,-0.664141845703125,0.1967
7,252000,117.18591176675471,-0.175762939453125,1.306798095703125,0.1945
7,252500,118.98923484534237,-0.1042431640625,0.9080072021484376,0.1922
7,253000,117.13970803246592,-0.103726806640625,0.69334716796875,0.1897
7,253500,114.90386813827789,-0.1804229736328125,0.9596014404296876,0.1871
7,254000,108.49909584086848,-0.168428955078125,1.292325439453125,0.1843
7,254500,100.61732244184854,0.0814727783203125,0.822960205078125,0.1811
7,255000,97.48268722781354,0.19892822265625,0.516470947265625,0.1776
7,255500,96.66635499454758,0.08525390625,-1.1812335205078124,0.1737
7,256000,96.75427860180456,0.02967041015625,0.1669091796875,0.1695
7,256500,96.4630225080452,-0.0422381591796875,-0.0152734375,0.1653
7,257000,100.5954788719308,-0.0243243408203125,-0.632142333984375,0.1609
7,257500,104.77145019337132,-0.1183416748046874,-0.531087646484375,0.1563
7,258000,107.99922903950848,-0.023009033203125,-0.916781005859375,0.1516
7,258500,111.23909774435045,0.098299560546875,-0.7559979248046874,0.1469
7,259000,114.44015444016092,0.1210113525390625,0.0949957275390624,0.1423
7,259500,116.0599802460272,0.06952392578125,0.28799072265625,0.1379
7,260000,116.17111241059544,0.016859130859375,0.5535522460937501,0.1338
7,260500,114.85858180359416,-0.01833251953125,0.6533978271484375,0.1299
7,261000,112.18556344123158,-0.0384539794921875,0.530616455078125,0.1263
7,261500,109.90564997241668,-0.0221142578125,0.4832086181640625,0.1229
7,262000,109.2637853949379,-0.025423583984375,0.777198486328125,0.1201
7,262500,109.1136446734338,-0.12914794921875,1.8030517578125005,0.1178
7,263000,109.689213893962,-0.199471435546875,2.105194091796875,0.1161
7,263500,111.25213256318216,-0.1540411376953125,1.6501214599609375,0.1151
7,264000,113.21112050250684,0.0013726806640624,0.22048828125,0.1142
7,264500,115.11763850516571,0.1884320068359374,0.0542687988281249,0.1139
7,265000,117.28959276018335,0.167113037109375,-0.4280169677734375,0.1139
7,265500,119.42233180695656,0.0204766845703125,0.156343994140625,0.1141
7,266000,120.99437488658624,-0.1111370849609375,0.3590289306640625,0.114
7,266500,123.86824769434644,0.111658935546875,-1.734737548828125,0.1135
7,267000,122.8457112372762,0.1032135009765625,-1.2664434814453125,0.1125
7,267500,123.16902029453632,0.061513671875,-0.8429840087890625,0.1109
7,268000,116.98533976410756,-0.0031201171875,-0.344068603515625,0.1084
7,268500,106.16715612350252,-0.032835693359375,-0.2991485595703125,0.1051
7,269000,96.92686285136308,-0.1283868408203125,0.0709637451171875,0.1007
7,269500,85.83690987123614,-0.0770751953125,0.1372247314453125,0.0951
7,270000,79.39458883231447,-0.03395263671875,0.2303125,0.0883
7,270500,78.63196652193605,-0.01372802734375,0.1615777587890625,0.0805
7,271000,80.97165991902997,0.023916015625,0.1185186767578125,0.0716
7,271500,84.54427635879685,0.0352398681640625,0.0876348876953125,0.0621
7,272000,86.40723622086485,-0.1494964599609375,0.0229046630859375,0.0519
7,272500,88.0772559200729,-0.036458740234375,-0.3278894042968749,0.0417
7,273000,89.68609865471079,0.12804931640625,-1.1801873779296874,0.0316
7,273500,93.0732157076483,0.184462890625,-1.407734375,0.0221
7,274000,96.66335255517158,0.0932086181640624,-1.1744171142578126,0.0134
7,274500,100.03362241197406,-0.0063763427734375,-0.7082135009765625,0.0058
7,275000,103.30629440986569,-0.1044439697265625,0.328026123046875,-0.0003
7,275500,106.51664322550312,-0.0089630126953125,-1.0489599609375,-0.0049
7,276000,109.01200065757116,0.0460711669921875,-3.1570172119140625,-0.0075
7,276500,111.7031539888712,0.01970458984375,-1.7355694580078125,-0.0079
7,277000,114.53518621456786,-0.043143310546875,0.163341064453125,-0.0059
7,277500,116.74881106787456,-0.0157110595703125,0.371533203125,-0.0015
7,278000,116.88968936916976,0.053531494140625,0.2983465576171875,0.0052
7,278500,114.06844106464884,-0.002288818359375,0.21050048828125,0.0143
7,279000,106.71092602651524,-0.0316461181640625,0.09037353515625,0.0255
7,279500,99.05835199019756,-0.079302978515625,0.0874017333984375,0.0384
7,280000,92.88507382947309,-0.0673583984375,-2.777708129882813,0.0526
7,280500,84.98583569406263,-0.0292913818359375,-5.1959619140625,0.0679
7,281000,86.52812567900386,-0.0463824462890625,-2.519708251953125,0.0839
7,281500,88.69354532417177,-0.032333984375,-1.804064331054688,0.1006
7,282000,91.81753231288909,-0.0757421875,-0.7654357910156251,0.1176
7,282500,96.00237628850095,0.0751324462890625,-0.3855694580078125,0.1345
7,283000,100.67114093959673,0.100428466796875,-0.1039984130859374,0.1513
7,283500,103.34318600687476,0.116788330078125,0.8887982177734375,0.1675
7,284000,103.76140703157274,0.0121905517578125,1.3387353515625002,0.1828
7,284500,104.02177047289452,-0.05221435546875,0.7098956298828125,0.1969
7,285000,104.49737762237524,-0.0488275146484375,-1.2462017822265623,0.2098
7,285500,105.57795146030188,-0.056727294921875,-1.51410400390625,0.2212
7,286000,107.65117235705264,-0.0801153564453125,-1.5003631591796869,0.231
7,286500,110.11845297560714,-0.258814697265625,-1.0869378662109377,0.2394
7,287000,111.55844155844343,-0.1864697265625,-0.5878991699218751,0.2461
7,287500,113.75174825174447,0.1052703857421875,-0.414334716796875,0.2514
7,288000,115.4150268336348,0.15497802734375,-0.1629376220703124,0.2545
7,288500,116.27906976742467,0.067015380859375,0.3046295166015625,0.2561
7,289000,116.05460842968392,0.007933349609375,-0.136781005859375,0.2566
7,289500,113.77659574467756,0.0699237060546875,-0.3921893310546875,0.256
7,290000,110.1194426011934,0.0160198974609375,-0.3323870849609375,0.2545
7,290500,104.29815662501164,-0.0186004638671875,-0.309317626953125,0.2521
7,291000,98.05250103348396,-0.09020263671875,-0.2486737060546875,0.2492
7,291500,91.46341463415344,-0.063350830078125,-0.1413720703125,0.2461
7,292000,86.61559007521417,-0.0302783203125,-0.1054351806640625,0.2428
7,292500,85.2066399634588,-0.129471435546875,-0.0942950439453125,0.2396
7,293000,84.25827112030275,-0.0594561767578125,-0.0841766357421874,0.2367
7,293500,84.98583569404892,0.1672509765625,-0.0402746582031249,0.2341
7,294000,85.33643253189953,0.1876263427734374,0.77468505859375,0.2315
7,294500,85.84526584526668,0.065760498046875,4.352828369140625,0.2299
7,295000,86.58008658008859,0.1126239013671875,4.495857543945314,0.2293
7,295500,88.3331101887837,0.11235595703125,1.2015936279296873,0.2305
7,296000,90.5345759929884,0.0611737060546875,-2.0947052001953126,0.2329
7,296500,92.69220797926393,0.0221844482421875,-1.868876953125,0.2366
7,297000,95.16894097168402,0.145255126953125,-1.272105712890625,0.2415
7,297500,99.05136933222592,0.2081915283203125,-0.8986224365234375,0.2477
7,298000,104.52961672474676,0.0305853271484375,-0.5786016845703126,0.2551
7,298500,108.2291712609722,-0.05773681640625,-0.4414074707031249,0.2633
7,299000,111.08250368049718,-0.1632086181640625,-0.35374755859375,0.2724
7,299500,112.18244851927749,-0.2653753662109375,-0.2930877685546875,0.2821
7,300000,111.91136777351868,-0.31120361328125,-0.2401953125,0.2921
7,300500,109.11104226421948,-0.097236328125,-0.1724053955078125,0.3029
7,301000,105.4345391335356,0.037906494140625,-0.129248046875,0.3141
7,301500,101.70012306964058,-0.0024005126953125,-0.0985040283203125,0.3256
7,302000,96.3081861958193,-0.0661334228515625,-0.0712628173828125,0.337
7,302500,93.61814727812845,-0.0826800537109374,-0.07655517578125,0.3479
7,303000,92.22897621666974,-0.105184326171875,-0.0691876220703125,0.3584
7,303500,91.28214826021494,-0.16156494140625,-0.073026123046875,0.3681
7,304000,90.7715582450752,-0.2092730712890625,-0.0539935302734375,0.377
7,304500,89.76859358357851,-0.1472344970703125,-0.045274658203125,0.3848
7,305000,91.41625266881869,0.0744476318359375,0.1143408203125,0.3911
7,305500,92.9023497688758,0.1324157714843749,0.0713323974609375,0.3958
7,306000,93.94708466453892,0.0976092529296875,0.041173095703125,0.3988
7,306500,95.8466453674158,-0.039852294921875,1.28484619140625,0.4
7,307000,96.77662105735504,0.004815673828125,2.0890753173828123,0.3758
7,307500,97.94599584582885,0.15628662109375,0.29142578125,0.351
7,308000,98.4546555761964,0.1090234375,-1.8044812011718752,0.3249
7,308500,99.40311055066208,0.2368365478515625,2.485516357421876,0.2983
7,309000,103.7216117216048,0.215316162109375,5.33600341796875,0.2712
7,309500,110.1561596298363,0.0430059814453125,4.4439105224609365,0.2437
7,310000,112.76530810422446,-0.11545166015625,3.2568414306640627,0.2159
14,500,103.98613518197604,-0.03404052734375,-2.5114227294921867,-0.0018
14,1000,99.84590833433516,-0.0257354736328125,3.678709106445313,0.0042
14,1500,102.63969005595683,0.0074755859374999,4.87452880859375,0.0109
14,2000,104.06402888520986,0.025377197265625,2.8635748291015624,0.0183
14,2500,102.87232183425972,0.0116387939453125,3.637371826171875,0.0264
14,3000,101.55173922937522,0.013956298828125,3.5751324462890626,0.035
14,3500,103.97016461513935,0.0216473388671875,3.1183331298828127,0.0442
14,4000,102.3890784983112,-0.0482366943359375,2.6204345703125,0.0541
14,4500,101.25555900299528,-0.010120849609375,2.6549530029296875,0.0778
14,5000,100.2783240054423,0.0091497802734375,1.90474609375,0.0937
14,5500,102.0501255167095,0.003336181640625,1.416353759765625,0.1069
14,6000,104.3010260058118,-0.011729736328125,0.8926885986328126,0.1189
14,6500,103.62239375387016,-0.0109228515625,0.6567895507812501,0.1302
14,7000,102.56410256411613,0.017808837890625,0.417803955078125,0.1409
14,7500,104.34425863990263,-0.0170404052734375,0.3144317626953125,0.1511
14,8000,106.79627329193364,0.0263677978515625,-0.559112548828125,0.1609
14,8500,108.03403816399134,-0.0007073974609374,-2.7208251953125,0.1701
14,9000,109.94338391037974,-0.0083184814453125,-0.9273040771484377,0.1788
14,9500,111.58754353898294,0.0030438232421875,-0.427041015625,0.1871
14,10000,112.03570930394602,0.0061419677734374,-2.7926788330078125,0.1949
14,10500,112.24146621489626,0.001077880859375,-4.116027221679688,0.2021
14,11000,112.31581305479416,-0.0083135986328124,-3.9823089599609376,0.2088
14,11500,112.45281155657617,-0.0092242431640625,-2.6115264892578125,0.2147
14,12000,114.79906594017687,-0.0022247314453125,-1.4138574218750002,0.2198
14,12500,118.67487276601268,0.0089825439453125,4.247827758789063,0.2239999999999999
14,13000,120.4043422209994,-0.0009991455078124,3.57375732421875,0.2273
14,13500,118.97314745508974,-0.004495849609375,2.1640576171875,0.2297
14,14000,115.57082572991656,0.012528076171875,1.8471875,0.2314
14,14500,109.25448736265108,0.031534423828125,3.0778735351562503,0.2324
14,15000,106.76156583629673,-0.0253497314453125,2.254025268554688,0.2329
14,15500,108.07579109359416,-0.02309814453125,1.5991918945312502,0.2329
14,16000,107.44437460717182,0.0223333740234375,1.102884521484375,0.2329
14,16500,106.7763101453083,0.0196417236328125,0.789652099609375,0.2325
14,17000,106.45780582743608,-0.0055126953125,-0.0027044677734375,0.2319
14,17500,106.941203385946,-0.006217041015625,-0.0071984863281249,0.2309
14,18000,108.54769655717094,0.01789306640625,0.1654437255859375,0.2301
14,18500,111.8870203736636,0.04962890625,2.2009350585937497,0.2295
14,19000,115.09431464689273,-0.003477783203125,1.904909057617188,0.2291
14,19500,114.71351776584515,-0.0065789794921875,1.2924157714843751,0.2289
14,20000,113.14155818446991,-0.0079071044921875,1.0676483154296874,0.2289
14,20500,107.71992818671136,-0.065452880859375,0.7011920166015625,0.2289
14,21000,98.1665497906305,-0.0232073974609375,0.6657647705078125,0.2291
14,21500,91.70093965766992,-0.0020208740234374,0.4442834472656249,0.2294
14,22000,86.82350562025057,-0.023515625,0.0634252929687499,0.2296
14,22500,87.46355685132194,-0.007442626953125,-0.4537597656250001,0.2299
14,23000,88.39839628613609,0.0154034423828125,-0.2843109130859375,0.2299
14,23500,88.3982847363623,0.0194354248046875,-0.296763916015625,0.2295
14,24000,88.22136563876154,-0.02693115234375,-0.891251220703125,0.2291
14,24500,89.28571428571091,-0.011739501953125,-0.9545709228515624,0.2285
14,25000,97.71858084255496,0.03558349609375,-0.775430908203125,0.2279
14,25500,103.75820465976128,0.025400390625,-0.5652862548828125,0.2269
14,26000,104.07732864675248,0.028878173828125,-1.05569091796875,0.2255
14,26500,100.82672800383742,-0.0040985107421875,-1.132457275390625,0.2235
14,27000,96.19191167833932,0.003800048828125,-0.729615478515625,0.2211
14,27500,91.46341463415344,-0.0559625244140625,-1.0728985595703129,0.2181
14,28000,90.60682193287592,0.0367236328125,-0.514759521484375,0.2149
14,28500,90.64304597108958,-0.0455517578125,-0.283184814453125,0.2113
14,29000,91.40091324201892,-0.0196990966796875,-0.3634368896484376,0.2076
14,29500,92.30769230769552,0.1172796630859375,1.766370849609375,0.2039
14,30000,99.38729096988963,0.1543994140625,1.6970526123046876,0.2001
14,30500,104.28776673418362,0.140941162109375,1.435987548828125,0.1965
14,31000,105.52130003218473,0.1227227783203125,2.3933721923828126,0.1931
14,31500,103.52208651474888,0.1650738525390624,1.961436767578125,0.1898
14,32000,99.86118416832012,0.2262646484375,1.0887384033203125,0.1869
14,32500,91.60305343511828,0.1640380859375,-0.0937994384765625,0.1845
14,33000,86.78904811636271,0.1873284912109376,-0.0846063232421874,0.1826
14,33500,84.97975144826741,0.2116168212890625,-0.519022216796875,0.1813
14,34000,85.83690987125013,0.2356555175781249,-2.186068115234375,0.1807
14,34500,84.57651980224854,0.1083831787109375,-1.848683471679688,0.1805
14,35000,86.73755274261845,0.2723583984375,-1.519588623046875,0.181
14,35500,89.26165742141859,0.2933984375,-0.9695526123046876,0.1819
14,36000,90.7715582450752,0.297322998046875,-0.195533447265625,0.183
14,36500,95.8739671825866,0.5218585205078126,0.7550469970703125,0.1845
14,37000,100.28797344787,0.4429730224609375,0.1409661865234375,0.1862
14,37500,101.8294830622634,0.2558489990234375,0.0910931396484375,0.1879
14,38000,101.68978215232757,0.361944580078125,-0.2033160400390625,0.1899
14,38500,102.3828468280227,0.4870166015625,-0.3598809814453125,0.1919
14,39000,105.95923837459428,0.321912841796875,-0.451849365234375,0.1939
14,39500,107.70499301469243,0.4365545654296874,-1.10107666015625,0.1959
14,40000,103.98613518197604,0.2472015380859375,-0.931787109375,0.1977
14,40500,98.59565520504316,0.2206890869140625,-1.1875848388671877,0.1991
14,41000,96.5282092705316,0.1434710693359375,-1.1943762207031252,0.2
14,41500,98.75066312996852,0.1790429687499999,1.8220062255859373,0.2007
14,42000,104.1667177068608,0.2354962158203125,1.65806640625,0.2014
14,42500,106.70510314390808,0.44136962890625,1.2097564697265626,0.2021
14,43000,107.71992818673334,0.22090576171875,0.8589312744140625,0.2027
14,43500,103.6362285643472,0.214593505859375,2.0442584228515623,0.2035
14,44000,106.71272592684365,0.0762237548828125,1.5297924804687502,0.2042
14,44500,102.64042933810344,-0.242730712890625,1.1685198974609377,0.2051
14,45000,97.30535987748505,-0.2107037353515625,0.8383282470703125,0.2064
14,45500,91.88361408881798,-0.03916015625,0.4845611572265625,0.2079
14,46000,84.17099782716207,0.0584149169921875,0.378929443359375,0.2095
14,46500,82.72823692583833,0.1127185058593749,0.305784912109375,0.2115
14,47000,82.07934336525372,0.2436578369140625,-0.0085052490234375,0.2135
14,47500,82.18840769821594,-0.1375030517578125,-0.0962799072265625,0.2159
14,48000,83.31799291980894,-0.247275390625,-0.1330224609375,0.2184
14,48500,84.87679873842085,-0.0741351318359374,0.0805078125,0.2215
14,49000,87.719298245618,-0.219881591796875,-0.331583251953125,0.2248
14,49500,88.03385114768957,-0.3249310302734375,-0.542919921875,0.2283
14,50000,89.7912861287213,-0.2070684814453124,-0.411666259765625,0.2317
14,50500,91.16838018156596,-0.120347900390625,-0.46911865234375,0.2351
14,51000,89.68609865471079,-0.28270263671875,-0.44733642578125,0.2383
14,51500,89.9098432846327,-0.150240478515625,-0.3316778564453125,0.2412
14,52000,90.36982265296398,0.1517486572265625,-0.796195068359375,0.2439
14,52500,90.50935927148296,-0.0453106689453125,-1.3684881591796876,0.2461
14,53000,89.15304606240689,-0.364974365234375,-1.7953948974609375,0.2477
14,53500,86.4537817975997,-0.168385009765625,-1.8715832519531248,0.2489
14,54000,84.64920422191031,0.087493896484375,-2.9362335205078125,0.2494
14,54500,82.5309491059175,0.190894775390625,-4.489762573242189,0.2493
14,55000,82.72538063842727,0.3321600341796875,1.5965124511718751,0.2487
14,55500,86.94855714137344,-0.0969622802734375,1.5575854492187502,0.2476
14,56000,91.83667606686689,-0.180970458984375,1.4581951904296877,0.2459
14,56500,95.0871632329678,0.194656982421875,0.7320629882812499,0.2437
14,57000,93.3409902571355,-0.1458013916015625,0.9168743896484376,0.2411
14,57500,99.57539883397492,-0.2172802734375,2.5526953125,0.2383
14,58000,103.23290563824676,-0.4161822509765625,1.902481689453125,0.2353
14,58500,105.00624617269588,-0.2309881591796875,1.5372216796875,0.2322
14,59000,103.61127224632608,-0.1790460205078125,1.2323992919921871,0.2293
14,59500,98.84678747939316,-0.0736334228515625,0.899212646484375,0.2265
14,60000,90.05252620769812,0.0975439453125,0.6476202392578125,0.2238
14,60500,87.70991186022052,0.1610583496093749,0.5354699707031251,0.2216
14,61000,85.76607642125862,0.09189697265625,0.413299560546875,0.2197
14,61500,81.0810810810801,0.030064697265625,0.2265753173828125,0.2182
14,62000,83.19829942301905,0.0550225830078125,0.11137939453125,0.2168
14,62500,84.61611822596956,0.1250579833984375,-0.0420263671875,0.2156
14,63000,85.59201141226548,-0.1258209228515625,-0.35875,0.2145
14,63500,85.91132602218059,-0.394578857421875,-0.237255859375,0.2137
14,64000,85.31482303563453,-0.298594970703125,-0.10321533203125,0.2128
14,64500,84.50234741783608,-0.070037841796875,0.0369287109375,0.2121
14,65000,83.33333333333017,0.07640380859375,0.01205322265625,0.2115
14,65500,83.73809523809783,-0.5707440185546875,0.0549957275390625,0.2111
14,66000,84.46550994498955,-0.688079833984375,-0.3130194091796875,0.2109
14,66500,86.33093525179234,-0.10880126953125,-1.3407843017578125,0.2108
14,67000,87.25515447699665,0.2017828369140625,-1.8445269775390625,0.2109
14,67500,85.67795284747626,0.1594714355468749,-1.5709411621093752,0.2111
14,68000,82.5309491059175,0.1389495849609375,-1.0738433837890624,0.2113
14,68500,82.63462434776716,0.370174560546875,-1.5016448974609369,0.2116
14,69000,81.67811742839322,0.07414794921875,-0.9179168701171876,0.2118
14,69500,80.32128514056683,-0.4824609375,-0.9939581298828124,0.2122
14,70000,78.47818915819316,-0.3303497314453125,-0.43628173828125,0.2128
14,70500,78.9487591451749,0.0756744384765625,2.1876123046875,0.2139
14,71000,81.0253998695542,0.0006304931640624,1.7917364501953126,0.2153
14,71500,91.88361408883398,-0.1445379638671875,1.50913330078125,0.217
14,72000,90.7419878595476,0.0390509033203125,1.0589056396484375,0.2188
14,72500,88.73493975903011,-0.2208404541015625,0.4364581298828126,0.221
14,73000,85.71428571429406,-0.15385009765625,0.0058367919921874,0.2233
14,73500,82.86201611318866,0.0674041748046875,-3.18135986328125,0.2256
14,74000,81.00143297861918,0.194124755859375,-6.043607788085938,0.2281
14,74500,78.3289817232298,0.298997802734375,-5.033408203124999,0.2308
14,75000,87.66295634648367,0.3437554931640625,1.3706903076171877,0.2338
14,75500,97.44561403508553,0.4483233642578125,2.01366455078125,0.237
14,76000,100.09983305509704,-0.14751953125,1.923117065429688,0.2404
14,76500,101.26809522720713,-0.2879028320312501,2.9061669921875,0.2439
14,77000,102.2838724530817,-0.287086181640625,2.2797283935546875,0.2475
14,77500,100.8403361344492,-0.224871826171875,1.724429931640625,0.2511
14,78000,95.626184231665,-0.0241143798828125,1.301688232421875,0.2543
14,78500,90.29754717155242,0.231468505859375,1.033905029296875,0.2575
14,79000,86.30921100501726,0.251685791015625,0.8966741943359375,0.2606
14,79500,83.79888268156328,0.2775140380859375,0.4483612060546875,0.2637
14,80000,82.43066299816707,0.1209552001953125,0.53673095703125,0.2665
14,80500,82.9033240895101,-0.1790625,0.340374755859375,0.2693
14,81000,85.34850640112725,-0.0702740478515625,0.0772583007812499,0.2719
14,81500,86.70321322923296,0.0907965087890625,-0.247833251953125,0.2741
14,82000,89.25325615050406,0.147392578125,-2.2943218994140624,0.2759
14,82500,91.96603396602902,0.054251708984375,-2.78324951171875,0.2772
14,83000,95.42115612325944,-0.03986328125,-1.4091473388671876,0.2781
14,83500,102.3933595747442,-0.1466748046875,-2.702736206054688,0.2785
14,84000,104.52961672474676,-0.2160662841796874,-3.16411865234375,0.2789
14,84500,99.24525303884737,-0.4004559326171875,0.048280029296875,0.2792
14,85000,97.2967852951808,-0.2884326171875,-2.372391357421875,0.2797
14,85500,95.62990160081992,-0.0404791259765625,-1.7521936035156251,0.2803
14,86000,90.90909090909528,0.1827130126953125,2.217855224609375,0.2808
14,86500,95.66889340691628,0.2203753662109375,3.16220947265625,0.2814
14,87000,100.4316889586795,-0.2090850830078125,2.272555541992188,0.2821
14,87500,102.44951594615932,-0.1506878662109375,1.7704974365234376,0.2827
14,88000,101.5096046354833,0.0233404541015624,1.2600726318359377,0.2837
14,88500,98.84018891279663,0.2388220214843749,1.1076562500000002,0.2851
14,89000,95.0871632329678,-0.0923468017578125,1.113538818359375,0.287
14,89500,96.47442522795964,-0.2328070068359375,0.445780029296875,0.2893
14,90000,94.3150715663888,0.0161798095703125,0.6807257080078126,0.2922
14,90500,94.90196078431237,0.3002056884765625,0.3312945556640625,0.2956
14,91000,98.03921568626475,0.1070281982421874,-0.6127575683593751,0.2994
14,91500,98.03921568627992,-0.2383837890625,-1.8458197021484373,0.3033
14,92000,99.44688323089407,-0.0751275634765625,-1.37577880859375,0.3073
14,92500,102.51667651417053,-0.02862060546875,-0.4841180419921876,0.3109
14,93000,105.0929614470014,-0.3167199707031251,-1.3911358642578129,0.3145
14,93500,106.52104079665293,-0.166346435546875,-4.775238037109375,0.3182
14,94000,106.6368841985715,0.13341064453125,-1.7671441650390625,0.3218
14,94500,106.14140529723264,0.3435821533203125,1.9582598876953128,0.3253
14,95000,106.61762150263183,0.425181884765625,2.9236602783203125,0.3285
14,95500,109.48269581056688,-0.0556634521484375,2.2681695556640618,0.3311
14,96000,111.11111111109518,-0.405989990234375,1.7023095703125,0.3333
14,96500,107.93924860113312,-0.1699053955078125,1.5383050537109375,0.3349
14,97000,101.73178318780371,-0.2292730712890625,1.2053460693359377,0.3362
14,97500,97.2472522553314,-0.4220648193359376,0.516514892578125,0.3369
14,98000,93.78206833643586,-0.0519769287109375,-0.7009857177734375,0.3372
14,98500,90.36144578313429,0.17666259765625,-0.4585772705078125,0.3371
14,99000,89.32947242163307,0.2400250244140625,-0.95678466796875,0.3367
14,99500,90.48095005841644,0.108125,-2.518037109375,0.3362
14,100000,91.96378483934312,0.1084344482421875,-3.119237060546875,0.3357
14,100500,93.02325581395613,0.18923095703125,-4.244239501953125,0.3351
14,101000,94.02143325799624,0.1982257080078125,-1.42574462890625,0.3341
14,101500,95.93869731800852,0.16492919921875,-0.5259039306640625,0.3331
14,102000,96.46637355479356,0.19959228515625,-4.479462280273439,0.3321
14,102500,95.99823231809756,0.07529296875,-2.6910595703125004,0.3312
14,103000,94.93670886076733,-0.0065533447265625,-1.35988525390625,0.3306
14,103500,89.13328369323078,0.0688525390625,4.101428833007812,0.3302
14,104000,98.78981472106892,0.0423626708984374,4.821150512695314,0.3302
14,104500,103.27022375214835,-0.2836230468749999,3.6389404296875,0.3303
14,105000,100.9457464251008,-0.6731347656250001,2.76212890625,0.3303
14,105500,94.7867298578142,-0.2730053710937501,1.9826745605468752,0.3302
14,106000,80.85117361675503,0.024461669921875,1.6913153076171876,0.33
14,106500,71.00591715976103,0.00654296875,1.3344104003906252,0.3299
14,107000,72.11125114819288,0.2081896972656248,0.9872174072265624,0.3297
14,107500,71.75511994332263,-0.054273681640625,0.8137695312500001,0.3293
14,108000,70.09345794391639,-0.14457763671875,0.1982794189453125,0.3287
14,108500,71.146290291815,0.02873779296875,0.174300537109375,0.3277
14,109000,72.02881152461241,0.0146807861328125,-0.0909625244140625,0.3265
14,109500,73.65898388875966,0.2070812988281249,-0.5881658935546874,0.3248
14,110000,74.28373003930784,0.095750732421875,-0.3976220703125,0.3228
14,110500,75.28230865746309,-0.2650787353515625,-0.2559735107421875,0.3204
14,111000,85.90221990473107,-0.159222412109375,-0.7217797851562501,0.3172
14,111500,86.71991780530003,0.1327734374999999,-0.789288330078125,0.3133
14,112000,86.80884702575554,-0.05495361328125,-0.7376373291015625,0.3089
14,112500,86.7052023121521,-0.0499835205078125,-0.8828863525390624,0.3041
14,113000,81.73761190843149,0.00075927734375,-0.4039520263671875,0.2992
14,113500,79.12734342452106,0.0636480712890625,-0.3653399658203125,0.2941
14,114000,78.94736842105357,0.1479559326171875,-0.40206787109375,0.2885
14,114500,78.51218005901038,0.2728802490234375,-1.864462890625,0.2829
14,115000,78.48558403261592,0.1488299560546875,0.6613372802734374,0.2773
14,115500,80.53691275167736,0.0339825439453125,2.5464886474609374,0.2717
14,116000,87.88303834660721,0.116663818359375,1.792269287109375,0.2663
14,116500,89.89550135112671,0.1452398681640624,1.3356768798828127,0.2611
14,117000,89.82035928143624,-0.1625262451171875,0.7656292724609375,0.2563
14,117500,77.6725238048487,-0.121375732421875,0.5091613769531249,0.2518
14,118000,75.02238792331248,-0.0415252685546874,0.3450079345703125,0.2471
14,118500,72.46376811593433,0.010938720703125,-0.005765380859375,0.2425
14,119000,73.34477027824035,0.0869757080078125,0.0477496337890625,0.2377
14,119500,73.98273736128955,-0.0336993408203125,0.0488909912109375,0.2325
14,120000,74.24753696084862,0.0190594482421875,-0.046219482421875,0.2269999999999999
14,120500,74.49104461007789,0.05344970703125,0.01067138671875,0.2209
14,121000,74.90636704119433,-0.0547711181640625,-0.464163818359375,0.2143
14,121500,75.87767828285536,-0.0743768310546875,-0.4764208984375,0.2069
14,122000,76.57999868152119,-0.0666015625,-0.787945556640625,0.1984
14,122500,77.92207792207977,-0.326053466796875,-2.014806518554688,0.1889999999999999
14,123000,78.98124098124364,-0.4219818115234375,-1.334215698242187,0.1788
14,123500,82.95294449140562,-0.232430419921875,-0.9820623779296876,0.1675
14,124000,88.75739644969829,-0.003392333984375,-3.0859637451171875,0.1551
14,124500,85.76297548606054,0.0968353271484375,-0.767401123046875,0.1413
14,125000,85.23224893918365,0.20783447265625,-1.59750732421875,0.1263
14,125500,84.762790845303,0.1502569580078125,-4.251806030273438,0.1107
14,126000,84.15147265076202,0.197142333984375,-2.242723999023438,0.0947
14,126500,83.57713884992486,0.2412164306640625,-0.390224609375,0.0783
14,127000,83.45903165735669,0.0745245361328125,-4.747101440429686,0.0618
14,127500,83.7988826815766,-0.03762451171875,-3.5022857666015628,0.0454
14,128000,82.85470243317104,-0.012181396484375,2.456085815429688,0.0294
14,128500,87.7237708362516,0.0548486328125,4.3580828857421885,0.0139
14,129000,93.17484775111453,-0.1425274658203125,3.4178759765625,-0.0008
14,129500,95.78171234536522,-0.1323278808593749,2.6015777587890625,-0.0143
14,130000,101.867572156207,0.083575439453125,2.0563342285156248,-0.0267
14,130500,97.7007112078993,0.149439697265625,1.7992901611328125,-0.0379
14,131000,94.21529068026668,-0.1178900146484375,1.509317626953125,-0.0481
14,131500,91.162495389051,-0.3021405029296875,1.232884521484375,-0.0573
14,132000,87.5912408759194,-0.1509674072265625,0.5544262695312501,-0.0653
14,132500,87.28874554405289,-0.1255010986328125,0.4886724853515625,-0.0724
14,133000,86.76111908177981,-0.2162005615234375,0.10392333984375,-0.0788
14,133500,86.20622617642755,0.0369744873046875,-0.0022259521484375,-0.0845
14,134000,88.75739644969829,0.1659979248046875,-0.0088958740234374,-0.0897
14,134500,93.46027650804191,0.05135009765625,1.8736663818359376,-0.0946
14,135000,100.26766200918112,-0.056578369140625,1.6213818359375,-0.0991
14,135500,103.1444134449224,0.2704602050781249,1.16352783203125,-0.1034
14,136000,102.46695496439553,0.1965887451171875,0.75283203125,-0.1073
14,136500,102.21465076661175,0.2217352294921875,0.5123309326171874,-0.1111
14,137000,93.133552553388,-0.1015911865234375,0.0310150146484375,-0.115
14,137500,89.27055497593511,-0.0755084228515625,-0.225040283203125,-0.119
14,138000,86.4162443179363,0.1507958984375,-0.220225830078125,-0.1229
14,138500,84.62623413258748,0.344888916015625,-0.3147406005859375,-0.1267
14,139000,84.81152608511103,0.5084576416015625,-0.227432861328125,-0.13
14,139500,84.78040469773144,0.5060992431640625,-0.5702532958984374,-0.133
14,140000,84.62623413257394,0.5202911376953125,-0.7474206542968751,-0.1355
14,140500,86.15315402948345,0.0147418212890625,-0.3625762939453125,-0.1369999999999999
14,141000,88.94445311281311,-0.491658935546875,0.0539617919921875,-0.1377
14,141500,91.32174327220314,-0.285679931640625,-0.0650067138671875,-0.1375
14,142000,92.87179217248487,0.0603155517578125,-0.10336669921875,-0.1361
14,142500,92.735703245759,0.2642633056640625,-0.0721966552734375,-0.1338
14,143000,92.20375304614753,0.1465753173828125,-0.7157965087890625,-0.1307
14,143500,90.47010776675864,-0.293748779296875,-0.57976318359375,-0.1268
14,144000,88.21087588210753,-0.5553015136718751,-1.61829833984375,-0.1224
14,144500,91.32420091325235,-1.0964892578124998,-0.920443115234375,-0.1175
14,145000,95.2845100105363,-0.4130877685546875,-1.2764471435546876,-0.1121
14,145500,93.07577153385306,0.1379315185546875,-2.490543212890625,-0.1067
14,146000,89.45902480752649,0.3193560791015625,-2.486151123046876,-0.1015
14,146500,85.71428571428015,0.3676922607421875,-3.663882446289063,-0.0965
14,147000,84.91026156942077,0.41080078125,1.895264892578125,-0.0923
14,147500,86.84447108181524,0.307259521484375,2.320145263671875,-0.0888
14,148000,92.09726443768832,0.3862640380859375,0.830718994140625,-0.0863
14,148500,98.1996726677594,-0.3534613037109375,0.4902142333984375,-0.0846
14,149000,97.62612270967114,-0.451378173828125,0.4924151611328125,-0.0839
14,149500,95.90243902438384,-0.1746856689453125,2.8171459960937497,-0.0843
14,150000,98.19039008008036,-0.232147216796875,2.577974243164064,-0.0859
14,150500,102.40472092451768,-0.23855712890625,1.9703887939453124,-0.0888
14,151000,103.04189084797837,-0.42544189453125,1.3942333984375002,-0.0929
14,151500,94.48818897637932,-0.204813232421875,1.0982855224609376,-0.0981
14,152000,91.78285795846224,0.1101336669921874,0.9693701171875,-0.1044
14,152500,90.6865456074518,0.2390032958984375,0.8190509033203126,-0.1115
14,153000,90.71507816440494,0.3022314453125,0.474490966796875,-0.1189
14,153500,88.88888888889484,0.2544683837890625,-0.1891387939453124,-0.1264
14,154000,90.22181879307055,0.221470947265625,-0.4213897705078125,-0.1337
14,154500,90.2307110438666,0.183372802734375,-4.760803222656251,-0.1401
14,155000,90.11436597110578,0.22250244140625,-2.099957885742188,-0.1457
14,155500,96.30818619583694,-0.4929522705078125,-1.8462542724609377,-0.1495
14,156000,102.23879491294672,-0.42838134765625,2.3555627441406246,-0.1519
14,156500,108.2807902480061,-0.345848388671875,2.392828369140625,-0.1527
14,157000,106.80544713331624,-0.38479736328125,1.6885296630859374,-0.1519
14,157500,102.9675638371322,-0.1593206787109375,1.1406365966796874,-0.1496
14,158000,99.85155509452883,0.1051031494140625,0.6262896728515626,-0.1455
14,158500,80.21390374331048,0.3224639892578125,0.2533856201171875,-0.1395
14,159000,78.27781796547558,0.4977392578125,0.1566900634765625,-0.1321
14,159500,75.85335018962824,0.353411865234375,0.398885498046875,-0.1235
14,160000,78.20450658139444,0.2812786865234374,0.1453558349609375,-0.1141
14,160500,78.39246403522475,0.026429443359375,0.1123504638671875,-0.1043
14,161000,78.32898172324141,-0.16721435546875,0.0812701416015624,-0.0943
14,161500,82.79698834829514,-0.0764532470703125,-0.9725543212890624,-0.0845
14,162000,83.33397634240687,0.0375897216796875,-1.164202880859375,-0.0752
14,162500,83.76406168664069,0.0874884033203125,-1.1584991455078124,-0.0668
14,163000,85.59201141227942,-0.0709539794921875,-1.1742498779296875,-0.0605
14,163500,85.59201141226971,-0.57573486328125,-1.347060546875,-0.0559
14,164000,84.85735645874199,-0.342625732421875,-1.4597003173828125,-0.0533
14,164500,82.5309491059175,0.1517431640625,-2.8708978271484376,-0.0525
14,165000,82.09123503280267,-0.123299560546875,-4.801087036132814,-0.0537
14,165500,82.14986357588464,-0.2695550537109374,-1.846354370117188,-0.0567
14,166000,82.5309491059175,-0.0249853515625,-0.6423596191406249,-0.0613
14,166500,85.00078154308436,0.2781146240234375,2.6477655029296883,-0.067
14,167000,90.66477272727616,0.14404296875,1.873311767578125,-0.0733
14,167500,93.64719626168082,0.164805908203125,1.5191436767578126,-0.0799
14,168000,93.45794392522596,0.2012347412109374,0.6076599121093751,-0.0862
14,168500,85.47721797145718,0.3264617919921875,0.010848388671875,-0.0922
14,169000,83.64468935542502,0.4150543212890625,2.30776123046875,-0.0975
14,169500,86.0340795188755,0.2768157958984375,2.9581225585937503,-0.1021
14,170000,97.56097560975464,0.0884008789062499,2.2311322021484368,-0.1057
14,170500,92.69525348566258,-0.1417572021484375,1.4982257080078123,-0.1083
14,171000,86.39445300462343,-0.1525213623046875,1.19995849609375,-0.1092
14,171500,76.92307692307962,-0.16815673828125,0.844951171875,-0.1085
14,172000,71.56131868131966,0.0774407958984375,0.6845648193359375,-0.1064
14,172500,68.57142857142857,-0.2021051025390625,0.376676025390625,-0.1029
14,173000,68.92768472906374,-0.5003228759765626,-1.7500671386718751,-0.0984
14,173500,69.6823281036556,-0.2313507080078125,-1.452786865234375,-0.0933
14,174000,72.02881152461241,0.025726318359375,-1.1676177978515625,-0.0879
14,174500,73.72413473484153,0.201162109375,-0.9182464599609376,-0.0825
14,175000,74.86713556557334,-0.0025115966796874,-1.097225341796875,-0.0772
14,175500,76.8245838668424,-0.06201171875,-0.5515045166015624,-0.0721
14,176000,80.74199921259638,0.235255126953125,-0.6827557373046875,-0.0672
14,176500,82.6933731088758,0.2002520751953124,-1.2425689697265625,-0.0628
14,177000,79.57559681697411,0.1308013916015625,-0.96366455078125,-0.0593
14,177500,80.75400667269078,0.136357421875,-3.7944580078125,-0.0563
14,178000,81.8269003949824,0.04333740234375,-3.018446044921875,-0.0537
14,178500,83.44923504868598,-0.0181878662109375,0.157923583984375,-0.0519
14,179000,80.69574187843929,0.0008392333984375,-0.56689453125,-0.0506
14,179500,80.1016057334663,0.2127197265625,0.7028430175781251,-0.0496
14,180000,82.19178082191578,0.2027740478515625,3.836902465820313,-0.0489
14,180500,92.5750021271156,-0.300330810546875,2.592088623046875,-0.0481
14,181000,91.83592682306193,-0.7963287353515625,1.6405224609375,-0.0466
14,181500,90.04077324008625,-0.637891845703125,0.981697998046875,-0.0444
14,182000,86.95652173912356,-0.0346490478515625,0.8259552001953124,-0.0416
14,182500,78.33211105290819,0.2573687744140625,0.703582763671875,-0.0383
14,183000,72.49836555525033,0.1005645751953125,0.7889337158203125,-0.0347
14,183500,77.51937984496115,-0.0096826171875,0.1856121826171875,-0.0308
14,184000,77.23315444245264,-0.0046136474609375,0.03550537109375,-0.0263
14,184500,76.92307692306841,0.02364990234375,-0.4249774169921875,-0.0208
14,185000,78.4567055980655,0.2550347900390625,-1.02630615234375,-0.0149
14,185500,82.83083589096063,0.3505865478515625,-1.4775079345703124,-0.0085
14,186000,86.97927941859558,0.111595458984375,-2.5141137695312503,-0.0015
14,186500,89.68609865471079,-0.042724609375,-3.2203900146484377,0.0058
14,187000,95.18418444822817,0.0391455078125,-0.4711358642578125,0.0133
14,187500,99.1872218470587,0.175107421875,3.1420568847656254,0.0211
14,188000,101.55900784183302,0.2980706787109375,2.225446166992188,0.0289
14,188500,99.84647021457896,0.3544830322265625,1.5310888671875,0.0365
14,189000,94.6372239747782,0.4005181884765625,0.8838433837890625,0.0442
14,189500,81.80501176246858,0.01839111328125,0.87279052734375,0.0518
14,190000,78.16694536086831,-0.2400225830078125,0.7512957763671875,0.0595
14,190500,76.6283524904199,-0.1445758056640625,0.3904669189453125,0.0673
14,191000,74.61412151067478,0.07593994140625,0.22303955078125,0.0749
14,191500,73.54587328579862,0.07260009765625,-0.1098931884765625,0.0821
14,192000,78.02340702210607,0.040618896484375,-0.044739990234375,0.089
14,192500,77.97051323189234,0.0492889404296875,-0.1194500732421875,0.0955
14,193000,77.92207792207977,-0.1028021240234375,-5.446062622070314,0.1013
14,193500,77.24394524394111,-0.0105291748046875,-6.576254272460938,0.1065
14,194000,76.83544862705837,0.085689697265625,-3.220633544921875,0.1109
14,194500,76.23888182972982,-0.1524884033203125,1.3562835693359374,0.1147
14,195000,84.54159757069667,-0.4328143310546875,-0.5335736083984375,0.1175
14,195500,81.18452190598387,-0.5555499267578126,-5.099371337890625,0.1196
14,196000,75.47169811321145,-0.7112866210937501,-4.508494262695313,0.121
14,196500,75.10094339622222,-0.0189959716796874,-2.55881103515625,0.1212
14,197000,76.90676589985915,0.08679443359375,0.937095947265625,0.1204
14,197500,81.19079837618045,0.0609130859375,2.9481793212890626,0.1183
14,198000,84.70699334927191,0.1131781005859375,3.45359375,0.1149
14,198500,83.53959409914341,0.1215557861328125,2.958410034179688,0.1107
14,199000,81.4111261872493,0.018466796875,0.5598205566406249,0.1053
14,199500,79.36317453270617,0.22513427734375,0.225087890625,0.0991
14,200000,84.96459032121794,0.2627947998046874,0.2471771240234375,0.0919
14,200500,89.86043604110725,0.264493408203125,-0.608497314453125,0.0839
14,201000,91.18541033434435,-0.0842083740234375,-2.8956359863281254,0.0749
14,201500,90.8013555955171,-0.2933099365234375,-4.0423828125,0.0654
14,202000,89.54017568833035,-0.0221575927734375,-0.7265484619140624,0.0554
14,202500,92.48659008508332,0.13324951171875,4.1213049316406245,0.0451
14,203000,99.9145485732093,0.109635009765625,3.53000244140625,0.0345
14,203500,103.10181781880384,0.14808349609375,2.4629345703125,0.0237
14,204000,105.82010582010444,-0.274368896484375,2.929068603515625,0.0131
14,204500,107.25274725275284,-0.2565643310546875,2.499071044921875,0.0025
14,205000,100.72089217067234,0.056080322265625,1.783409423828125,-0.0078
14,205500,97.22585924713496,0.0440277099609375,1.5522753906250002,-0.0175
14,206000,95.59631544925284,-0.1676898193359375,0.938818359375,-0.0267
14,206500,84.03361344537163,-0.047476806640625,0.1474481201171875,-0.0351
14,207000,84.10692187113283,0.18929443359375,-0.4106964111328125,-0.0428
14,207500,83.92900591230432,0.1251904296875,0.5519952392578125,-0.0499
14,208000,82.87292817680328,0.1259722900390625,2.3152496337890627,-0.0563
14,208500,96.73844495350936,0.1899890136718749,1.537142333984375,-0.062
14,209000,89.73103151686009,0.2387396240234375,-0.339580078125,-0.0676
14,209500,75.56675062971375,0.20259765625,-0.8745306396484375,-0.073
14,210000,74.72970354582716,-0.2602471923828125,-1.2525933837890624,-0.0783
14,210500,75.54995394515096,-0.4019171142578125,-1.18766357421875,-0.0835
14,211000,79.26023778070687,-0.124334716796875,-0.9305096435546876,-0.0889
14,211500,79.48792700490048,0.0717529296875,-0.957113037109375,-0.0945
14,212000,80.60268489462364,0.014244384765625,-0.7075891113281251,-0.1001
14,212500,83.2177531206653,-0.107720947265625,-0.705562744140625,-0.1059
14,213000,88.49190938510486,-0.0845928955078124,-0.587354736328125,-0.1119999999999999
14,213500,87.32480101878097,0.0412811279296875,-0.566641845703125,-0.1184
14,214000,86.65680195013788,0.109725341796875,-0.368988037109375,-0.1251
14,214500,89.55223880597565,-0.118798828125,-4.435402221679689,-0.132
14,215000,86.15281546810905,-0.198402099609375,-5.3464202880859375,-0.1387
14,215500,87.08830104321855,0.1582391357421875,-4.487578735351561,-0.1451
14,216000,90.82762685630688,0.1987854003906248,-2.92835205078125,-0.1512
14,216500,96.5412357695208,0.2590924072265625,-3.090643310546875,-0.1566
14,217000,101.351351351354,0.1359954833984375,-2.82220458984375,-0.1612
14,217500,98.60841673648328,0.068927001953125,-3.429444580078125,-0.1651
14,218000,94.97737884378871,0.025902099609375,2.0259002685546883,-0.1683
14,218500,92.16941071117796,0.04851318359375,0.2965008544921875,-0.1705
14,219000,93.31259720061789,0.0017034912109375,-2.251713256835937,-0.1716
14,219500,94.68648883712488,0.0119482421875,0.0769525146484375,-0.1715
14,220000,92.0409079570972,-0.039156494140625,2.3721917724609383,-0.1702
14,220500,91.09844378388247,-0.086181640625,-3.840153198242188,-0.1676
14,221000,93.01807986772828,-0.007335205078125,-0.2262310791015625,-0.1636
14,221500,92.73570324574274,-0.0049530029296875,5.604644775390625,-0.1584
14,222000,97.36487463930618,0.020216064453125,4.366239624023439,-0.1519
14,222500,102.57034534340224,-0.064356689453125,3.5102905273437504,-0.1443
14,223000,102.5069909661815,-0.413717041015625,3.4153045654296883,-0.1359
14,223500,98.67461922437028,-0.2064227294921874,2.5424621582031253,-0.1265
14,224000,92.30769230769552,-0.036024169921875,1.66010986328125,-0.1164
14,224500,93.82859898723042,-0.1039520263671875,1.989378662109375,-0.106
14,225000,92.16187292237149,-0.02446044921875,2.1726739501953123,-0.0949
14,225500,90.94173764590607,0.0331829833984375,1.8194219970703125,-0.0829
