subject_id,timestamp,BPM,ECG,resp,label
1,500,70.33997655334045,-0.066748046875,-0.1712982177734374,0.037
1,1000,69.37235719772036,0.0150701904296874,-0.0455010986328125,0.0523
1,1500,70.80217785843973,-0.0718212890624999,0.967220458984375,0.0703
1,2000,78.94736842105209,0.0111297607421875,0.8513464355468751,0.0911
1,2500,82.0221606648203,0.017750244140625,0.5962567138671875,0.1147
1,3000,83.20790263485391,-0.038466796875,0.252705078125,0.1411
1,3500,83.44923504867775,-0.0074188232421874,0.10009765625,0.1702
1,4000,84.17121157662756,-0.0117755126953125,-0.32748046875,0.2019
1,4500,82.82135585551637,-0.0111804199218749,-0.3260321044921876,0.238
1,5000,80.54899909933575,-0.025953369140625,0.184345703125,0.2748
1,5500,86.58008658008683,-0.0374285888671875,0.6030700683593749,0.3113
1,6000,85.57198577000514,0.009549560546875,0.4272711181640625,0.3477
1,6500,84.95351303063572,-0.0674114990234375,0.2930303955078125,0.3823
1,7000,85.34850640113766,0.00036376953125,0.218416748046875,0.4158
1,7500,82.92073782151431,0.0090924072265625,-0.220838623046875,0.4478
1,8000,82.84833167157494,-0.0404925537109375,-0.480306396484375,0.4778
1,8500,84.86562942008561,-0.02400390625,-0.44009033203125,0.5055
1,9000,85.74755206973823,-0.010223388671875,-5.346737060546875,0.5308
1,9500,88.10747603505396,0.048109130859375,-2.113981323242188,0.5535
1,10000,89.9176083922377,-0.06105224609375,-4.366459960937499,0.5734
1,10500,90.22556390977552,0.0013262939453124,-0.267105712890625,0.5905
1,11000,91.3767650834396,0.0063287353515625,2.0366333007812503,0.6049
1,11500,93.87683120095828,-0.0128839111328124,1.5944268798828127,0.6164
1,12000,93.44394266172596,-0.0122283935546875,1.3542230224609375,0.6256
1,12500,90.22556390977552,-0.0597845458984375,1.1183062744140626,0.6325
1,13000,84.41584407947165,0.0146380615234375,0.97164306640625,0.6371
1,13500,81.34656135619277,0.0121417236328125,0.5757006835937502,0.6398
1,14000,76.62835249042135,-0.0032861328125,0.1983636474609375,0.6408
1,14500,73.63625046682412,0.042235107421875,0.04448974609375,0.6407
1,15000,72.27020442515091,-0.034681396484375,-0.957738037109375,0.6395
1,15500,73.61963190184069,-0.01048095703125,-1.62322021484375,0.6377
1,16000,76.04023771003921,0.02504150390625,0.1833892822265625,0.6356
1,16500,78.00929351446494,-0.16122314453125,1.3928778076171875,0.6331
1,17000,84.02791139754103,0.03745849609375,1.2565362548828125,0.6305
1,17500,83.69501820940971,0.0550531005859375,0.9454016113281252,0.6279
1,18000,83.94636425234283,-0.02146728515625,0.8039703369140625,0.6253
1,18500,85.47008547008569,0.004019775390625,0.19055908203125,0.6228
1,19000,85.6766788766801,0.02767578125,0.027938232421875,0.6206
1,19500,86.67669172932415,0.03781005859375,-0.2623150634765625,0.6185
1,20000,87.86900584795328,-0.0563720703125,-0.173262939453125,0.6167
1,20500,88.88888888888742,0.0212823486328125,-1.08342529296875,0.6153
1,21000,89.95555555555613,-0.0108416748046875,0.7915063476562499,0.6143
1,21500,91.56833259619584,-0.0049999999999999,1.0258233642578125,0.6133
1,22000,92.48722500386307,-0.0617144775390625,0.8839660644531251,0.6125
1,22500,90.77155824508694,-0.0002685546875,0.692589111328125,0.6116
1,23000,84.87403620428725,0.01303466796875,0.5144580078125001,0.6107
1,23500,82.14788862253192,-0.047432861328125,0.327259521484375,0.6097
1,24000,80.21390374331655,-0.0077923583984374,0.310899658203125,0.6085
1,24500,78.10442241865283,0.02455078125,-0.1473956298828125,0.6073
1,25000,78.35433146041642,-0.0320916748046875,-0.0388232421875,0.6056
1,25500,82.53094910591427,0.003514404296875,-1.33516357421875,0.6037
1,26000,84.13158455547503,0.0088519287109375,-2.66734130859375,0.6015
1,26500,84.79513444302083,0.012755126953125,-2.0539263916015624,0.5991
1,27000,85.23412025564015,-0.0066485595703125,-4.434393310546875,0.5965
1,27500,86.08321377331387,-0.04450439453125,-3.865194091796875,0.5937
1,28000,86.54963280713275,-0.017227783203125,1.720111083984375,0.5909
1,28500,86.50756629125375,-0.0041101074218749,0.5499114990234376,0.5881
1,29000,85.34850640113766,0.0525885009765625,0.09943115234375,0.5854
1,29500,83.780701754386,0.028548583984375,-0.6657733154296875,0.5827
1,30000,83.537296037296,-0.018267822265625,-1.3326171875,0.5802
1,30500,83.91608391608355,-0.03904541015625,-3.8473443603515625,0.5777
1,31000,85.26542589700452,-0.0233544921875,1.8362042236328129,0.5753
1,31500,86.4775416648539,-0.0049322509765625,2.956390380859375,0.5729
1,32000,87.7729257641911,-0.0508502197265625,2.5891558837890623,0.5705
1,32500,89.28571428571469,0.0130267333984375,2.11413330078125,0.5683
1,33000,85.35789632308777,0.0390075683593749,1.5503887939453125,0.5665
1,33500,83.23241960122934,0.0041729736328125,1.2578613281250002,0.5649
1,34000,80.75370121130297,0.004825439453125,0.6880322265625001,0.5637
1,34500,79.71919816744351,0.0292205810546875,-0.01466552734375,0.5628
1,35000,81.42449398377144,-0.0076159667968749,-0.6642315673828125,0.5622
1,35500,84.5070422535236,-0.00185791015625,-1.001285400390625,0.5619
1,36000,86.45143483378452,-0.014625244140625,-0.8518096923828125,0.5619
1,36500,87.58181218455229,0.0171014404296875,-2.433018188476563,0.5623
1,37000,90.97013822159842,-0.0297003173828125,-5.7119580078125,0.5629
1,37500,92.11370651221078,-0.036463623046875,-5.391859741210939,0.5635
1,38000,93.16770186335324,0.0319580078125,-2.881766357421875,0.5644
1,38500,91.85880927132476,0.00907958984375,-3.9637493896484375,0.5657
1,39000,90.9237117183208,0.0115509033203125,-0.678857421875,0.5671
1,39500,90.04327946135047,-0.055443115234375,4.59321044921875,0.5685
1,40000,87.08272859216345,-0.0064093017578125,4.359599609375,0.5698
1,40500,90.23838399904474,-0.0134136962890625,3.7175787353515615,0.5707
1,41000,89.52290977798683,-0.018897705078125,3.056583251953125,0.5713
1,41500,86.20689655172441,-0.0391510009765625,2.469051513671875,0.5714
1,42000,81.73718546132525,0.0358319091796874,1.971856689453125,0.5709
1,42500,79.56503912256285,-0.0194281005859375,1.335771484375,0.5704
1,43000,75.85335018963369,0.003662109375,0.8205609130859376,0.5692
1,43500,76.48888874518573,0.0325738525390625,-0.385872802734375,0.5673
1,44000,76.88714047967949,-0.0441162109375,-0.93776611328125,0.5645
1,44500,77.61966364812456,0.0200445556640624,-0.9809399414062498,0.5611
1,45000,81.84777921517916,0.0199127197265625,-0.11810302734375,0.5571
1,45500,83.4043639740013,-0.0241632080078125,-1.0494097900390624,0.5522
1,46000,83.56545961002578,-0.0084472656249999,-2.07758544921875,0.5465
1,46500,84.94304510164314,-0.0010675048828125,-1.2951416015625,0.5399
1,47000,86.33682774021506,-0.0075177001953124,1.213597412109375,0.5329
1,47500,88.12515713006546,-0.065430908203125,2.065736083984375,0.5253
1,48000,90.771558245083,0.0198638916015625,1.7781475830078124,0.5177
1,48500,88.05036603779492,0.018282470703125,1.4231121826171873,0.5098
1,49000,87.04119409012961,0.0167547607421875,0.7929193115234374,0.5018
1,49500,86.77533483927269,0.00225341796875,0.481962890625,0.494
1,50000,84.98583569404892,-0.0052569580078125,0.004266357421875,0.4859
1,50500,85.76487252124588,0.02880126953125,-0.1241986083984375,0.4783
1,51000,86.77079107505169,-0.05399169921875,0.68839599609375,0.4714
1,51500,88.23529411764986,0.0068811035156249,1.45103271484375,0.4651
1,52000,92.52287581699004,-0.04146240234375,1.301878662109375,0.4596
1,52500,90.88344716530736,-0.0013671874999999,1.0262774658203124,0.4548
1,53000,89.32901970067762,-0.028271484375,0.814361572265625,0.4508
1,53500,87.71929824561073,-0.0036340332031249,0.7618334960937501,0.4475
1,54000,85.54625199362216,0.0165533447265625,0.56895751953125,0.4451
1,54500,83.81301089918368,0.018056640625,0.39890625,0.4435
1,55000,81.74386920980828,-0.0206103515625,0.172662353515625,0.4425
1,55500,78.84212213495863,0.044630126953125,0.1128948974609375,0.4419
1,56000,79.62327400430979,-0.0014288330078125,0.0893719482421875,0.4417
1,56500,81.41112618724301,-0.0619512939453125,0.0697320556640625,0.442
1,57000,84.32864446467497,-0.034527587890625,0.24622802734375,0.4426
1,57500,89.87016702099353,-0.040367431640625,0.4262457275390625,0.4433
1,58000,93.55228939316603,-0.081708984375,0.44833740234375,0.444
1,58500,95.1607497955925,-0.0336798095703125,0.4303076171875,0.4446
1,59000,95.54140127388314,0.02078125,0.317178955078125,0.4453
1,59500,90.91587963979735,0.023046875,0.1767938232421875,0.4458
1,60000,86.60722409243972,0.0216094970703125,0.0242718505859375,0.4462
1,60500,79.15567282322097,0.015245361328125,0.0222283935546875,0.4465
1,61000,74.67870426296211,0.0705731201171875,-0.1290020751953124,0.4468
1,61500,72.28915662650496,-0.0579266357421875,-0.200291748046875,0.447
1,62000,67.60340247403877,0.0090570068359375,-0.5964721679687499,0.4468
1,62500,67.013296774424,-0.0652276611328125,-0.4332452392578125,0.4461
1,63000,68.6498855835244,-0.0180114746093749,-0.6578497314453124,0.4453
1,63500,69.36603603313254,0.013184814453125,-0.438934326171875,0.4443
1,64000,70.4225352112673,-0.0527777099609375,-0.5608129882812499,0.4431
1,64500,72.74553071181005,0.005960693359375,0.0131732177734375,0.4415
1,65000,75.99786928853213,-0.0241851806640625,0.0827557373046875,0.4395
1,65500,81.85538881309641,-0.013778076171875,-0.0059112548828125,0.4368
1,66000,80.52578590657471,0.0057489013671875,-0.104107666015625,0.4335
1,66500,80.14759358288842,-0.0314935302734375,-0.3429425048828125,0.4292
1,67000,80.0,-0.0066259765625,-1.1676562499999998,0.4237
1,67500,81.17687924016327,0.00677001953125,-1.7705169677734376,0.4169
1,68000,80.81274361253843,-0.0603424072265625,-2.2401660156250003,0.4091
1,68500,79.57559681697711,-0.079056396484375,-3.8110583496093753,0.4001
1,69000,81.24149463729519,-0.0553271484375,-1.478489990234375,0.3901
1,69500,83.23613086770855,-0.0485443115234375,-0.2860083007812501,0.3794
1,70000,85.32371242162452,-0.0632739257812499,1.3636810302734377,0.3681
1,70500,83.79888268156662,-0.0376422119140625,1.3761968994140623,0.3563
1,71000,83.01469426319566,0.03041259765625,0.7167633056640625,0.3443
1,71500,84.39157800968115,-0.091304931640625,-0.9779095458984376,0.3329999999999999
1,72000,83.10249307479127,-0.035625,-2.1707427978515628,0.3222
1,72500,83.69153284388688,-0.0288287353515624,0.9767584228515624,0.3121
1,73000,84.98285187866044,-0.025748291015625,1.518421630859375,0.3029
1,73500,85.71428571428713,-0.021114501953125,0.848060302734375,0.2947
1,74000,85.94269340974138,-0.0152447509765625,0.7388726806640625,0.2875
1,74500,87.49040305070848,0.0294549560546875,-0.5370025634765625,0.2818
1,75000,87.91236527308085,-0.08608154296875,-0.617796630859375,0.2775
1,75500,83.2177531206653,0.015687255859375,-5.467821044921875,0.2745
1,76000,83.87695910892072,0.00656494140625,1.6517926025390626,0.273
1,76500,84.50818870838101,-0.03341552734375,2.0406756591796875,0.2729
1,77000,85.34850640113766,-0.0245465087890625,1.6422546386718753,0.2745
1,77500,83.05561760107223,0.0081396484374999,-2.2570660400390623,0.2781
1,78000,84.34032938937986,-0.02520263671875,1.4372283935546877,0.2833
1,78500,86.33093525179588,-0.0160406494140625,1.38306884765625,0.2898
1,79000,82.09634973279988,-0.0350823974609375,1.19015380859375,0.2967
1,79500,80.8575150496947,0.001993408203125,0.959359130859375,0.3039
1,80000,79.57559681697711,-0.087305908203125,0.7657830810546875,0.3117
1,80500,76.94288602305093,0.0311212158203125,0.490897216796875,0.3197
1,81000,76.94702982044457,0.01330810546875,0.6046136474609375,0.3281
1,81500,77.3195876288678,-0.0101275634765625,0.53314208984375,0.3367
1,82000,74.7486161190388,0.024693603515625,0.1869439697265624,0.3458
1,82500,74.39518336069995,-0.0194940185546875,0.436934814453125,0.3557
1,83000,76.62835249042274,0.0076727294921874,0.6787506103515626,0.3666
1,83500,76.99995562064481,-0.0131182861328125,0.6183715820312501,0.3785
1,84000,77.1515237088993,-0.0476092529296875,0.4164154052734375,0.391
1,84500,75.66204287515703,0.005284423828125,0.2273956298828125,0.4041
1,85000,76.12200625202351,0.050010986328125,0.107548828125,0.4188
1,85500,76.62835249042274,-0.0417510986328125,-0.20521484375,0.4337
1,86000,78.54054624064071,0.0391510009765625,-1.0768817138671876,0.4484
1,86500,79.72959922742683,0.0457305908203125,-1.7239208984374998,0.4629
1,87000,80.97165991902997,-0.028543701171875,-2.157633056640625,0.4771
1,87500,81.18860699161203,-0.0972064208984375,-0.8606549072265626,0.4909
1,88000,82.37347767253031,-0.0966943359375,0.414180908203125,0.5043
1,88500,83.29668049792527,-0.14762451171875,0.302198486328125,0.5172
1,89000,82.98755186721841,0.012239990234375,0.0210260009765625,0.5297
1,89500,79.52663222965509,0.0889501953125,-0.008231201171875,0.5415
1,90000,76.54201680672348,-0.0182476806640625,-1.0863098144531251,0.5524
1,90500,78.43137254901808,-0.1034930419921875,0.371883544921875,0.5617
1,91000,83.18999323867435,-0.0775402832031249,0.51651123046875,0.5698
1,91500,85.9578001367593,-0.1631781005859375,0.117181396484375,0.5766
1,92000,84.9858356940523,-0.0460791015625,-0.0170806884765625,0.5820000000000001
1,92500,85.77286784580745,0.0163897705078125,0.5084375,0.5839
1,93000,85.62189843321363,-0.0114349365234374,0.5419281005859375,0.5842
1,93500,85.10638297872529,-0.1574822998046875,0.393717041015625,0.5835
1,94000,80.95730401256577,-0.0847503662109375,0.2494342041015625,0.5818
1,94500,80.96432740005723,-0.0228643798828125,0.1466802978515625,0.5795
1,95000,81.52173913043279,-0.0488409423828124,-0.0047808837890625,0.5769
1,95500,81.41532947908723,0.0708740234375,-0.2678076171875,0.5741
1,96000,81.304928182314,-0.01994140625,-0.1986004638671875,0.5713
1,96500,81.27187656596294,-0.20860595703125,0.1865765380859375,0.5682
1,97000,83.21775312066859,-0.1417578124999999,0.7587213134765626,0.5646
1,97500,85.24132150590131,-0.0215509033203125,0.7311956787109375,0.5602
1,98000,85.7391234644578,0.021396484375,0.4851617431640625,0.5552
1,98500,83.56545961002908,0.0909429931640625,0.1852593994140625,0.5495
1,99000,81.73695701272266,0.0117077636718749,-0.07125732421875,0.5433
1,99500,80.53524112347593,-0.1019793701171875,-0.11294189453125,0.5353
1,100000,78.43137254902102,-0.0077001953125,0.4230047607421875,0.5273
1,100500,81.68546315077838,-0.01490234375,0.4367138671875,0.5186
1,101000,81.72634411012996,-0.042420654296875,0.36813720703125,0.5091
1,101500,78.02340702210607,0.0098333740234375,0.0933758544921875,0.4987
1,102000,79.35863581977338,0.082774658203125,-0.1325042724609375,0.4873
1,102500,80.28751519712836,-0.0103802490234375,-0.338160400390625,0.4746
1,103000,81.5217391304359,-0.1727093505859375,-0.86883056640625,0.4605
1,103500,83.98162890385731,-0.19158935546875,-2.479166259765625,0.4449
1,104000,85.18479600703147,-0.1263519287109375,-1.881427001953125,0.4279
1,104500,86.2569037975645,-0.059630126953125,-1.6817663574218749,0.4097
1,105000,88.49557522123932,0.1221795654296875,-4.247376098632813,0.3911
1,105500,89.88751466041008,0.1099395751953125,-5.1402301025390615,0.3719
1,106000,90.19399938584792,0.093193359375,-2.155966796875,0.3519
1,106500,89.92763319832609,0.0267742919921875,-4.492850952148436,0.3309
1,107000,89.55223880597181,0.0752618408203125,3.19795166015625,0.3117
1,107500,91.67393800229598,-0.0672650146484375,1.700712890625,0.2933
1,108000,91.85725324903476,-0.083570556640625,2.0591094970703128,0.2762
1,108500,91.09589041096112,-0.1047882080078125,1.901484375,0.2608
1,109000,89.28571428571469,0.0777850341796875,0.4038305664062501,0.2474
1,109500,87.66431681525832,0.098204345703125,-0.7046874999999999,0.2361
1,110000,86.70320758875563,-0.0797723388671875,-0.4153826904296874,0.2269999999999999
1,110500,85.95988538682205,-0.14359375,-1.52555419921875,0.2206
1,111000,84.84046428050816,-0.0476055908203125,-4.47164306640625,0.2171
1,111500,85.65867239779148,0.037152099609375,-3.4591802978515624,0.2169
1,112000,86.55320537219427,-0.0058837890625,-3.015107421875,0.2201
1,112500,87.08272859216345,0.0850323486328124,-3.2254296875,0.2267
1,113000,88.21583158868229,0.03058349609375,1.6197979736328127,0.2367
1,113500,89.51367537363295,0.01757080078125,4.161372680664062,0.2502
1,114000,91.01687080039363,-0.070921630859375,4.247576904296875,0.2675
1,114500,92.73570324575084,-0.0271343994140624,3.719091796875,0.2884
1,115000,93.51520397755384,-0.22104248046875,2.998642578125,0.3109
1,115500,92.19143720156086,-0.1660748291015625,2.28512451171875,0.3345
1,116000,90.4577961523244,-0.1577874755859375,1.4183331298828126,0.3589
1,116500,87.84773060029379,-0.0492596435546875,1.506817626953125,0.3837
1,117000,84.83457804791055,-0.005135498046875,1.5296221923828126,0.4087
1,117500,83.671676139335,0.07200439453125,0.8994427490234375,0.4341
1,118000,82.98755186721841,0.030665283203125,-0.8745745849609375,0.4591
1,118500,85.08393059222837,0.0490301513671875,0.2505810546875,0.4837
1,119000,84.56381118881055,-0.029390869140625,0.6437982177734376,0.5075
1,119500,84.00344210245173,-0.260030517578125,0.8362756347656249,0.5303
1,120000,84.86562942008561,-0.16369140625,0.8409930419921875,0.5517
1,120500,84.39000101172282,-0.0604180908203125,0.743387451171875,0.5718
1,121000,83.435737519024,-0.011204833984375,0.5506304931640627,0.5907
1,121500,79.78723404255214,0.0689599609375,0.4240234375,0.6081
1,122000,77.08723404255363,0.037767333984375,0.3339886474609375,0.6228
1,122500,75.00000000000159,-0.238555908203125,0.280653076171875,0.6366
1,123000,71.98675417660952,-0.1229766845703125,0.1573883056640625,0.6492
1,123500,71.25040352062994,-0.1103302001953125,0.1555242919921875,0.6607
1,124000,69.36416184971253,0.0098846435546875,0.0310107421875,0.6716
1,124500,70.17187628414209,0.1028656005859375,-0.174864501953125,0.6816
1,125000,71.09004739336544,0.0115338134765625,-0.3004583740234375,0.6906
1,125500,71.91441851986731,0.084244384765625,-0.3901776123046875,0.6990000000000001
1,126000,72.83363570391747,-0.0080718994140625,-0.2204095458984375,0.7064
1,126500,75.47169811320873,0.059976806640625,0.7259307861328126,0.7127
1,127000,82.64576136061599,0.0330145263671875,0.8443273925781251,0.718
1,127500,84.16995566715036,-0.0349749755859375,0.5508465576171875,0.7223
1,128000,83.56545961002908,-0.03666748046875,0.1331280517578125,0.7252
1,128500,85.75059476131699,-0.0497674560546875,0.112628173828125,0.7267
1,129000,86.87196516399783,0.02862548828125,0.6729248046875,0.7271
1,129500,87.36178716422312,0.023199462890625,0.6052819824218749,0.7261
1,130000,86.4553314121052,-0.0254766845703125,0.3898028564453125,0.7240000000000001
1,130500,84.31987266829765,-0.1314324951171875,0.281912841796875,0.7211
1,131000,82.32623009308689,-0.0903936767578125,0.19269287109375,0.7179
1,131500,77.51937984496115,-0.0086163330078125,-0.0751080322265625,0.7140000000000001
1,132000,76.75010355642338,0.11821533203125,-0.3644476318359376,0.7095
1,132500,76.83977586486944,0.0360699462890625,-0.6532519531250001,0.7045
1,133000,79.78723404255518,0.07169677734375,-0.6809716796874999,0.6985
1,133500,81.43675313319656,0.051920166015625,-0.558724365234375,0.6920000000000001
1,134000,83.79685350242195,-0.1145379638671875,-0.112703857421875,0.6849
1,134500,87.33624454148683,-0.155379638671875,0.350413818359375,0.6772
1,135000,91.30824908775348,-0.1185174560546875,0.241949462890625,0.6689
1,135500,90.0780542909446,0.0069635009765624,-0.1406964111328125,0.6599
1,136000,89.25663189269774,-0.0108349609375,-0.2666595458984375,0.6504
1,136500,88.88888888888742,-0.03318359375,-0.270655517578125,0.6403
1,137000,86.98710403601825,-0.003900146484375,-0.493619384765625,0.6298
1,137500,85.55529358200994,0.0284149169921875,-1.0983648681640623,0.6187
1,138000,84.58671226184781,-0.0434027099609375,-3.184805908203125,0.6072
1,138500,86.95652173913075,-0.027572021484375,-5.9885009765625,0.5951
1,139000,87.52860411899343,-0.0814349365234375,-5.631068725585937,0.5822
1,139500,87.71929824561433,-0.0505987548828125,-5.288129272460939,0.5688
1,140000,87.71929824561433,-0.0135443115234375,-4.120575561523437,0.5551
1,140500,85.51506972559625,0.012830810546875,2.8354638671875003,0.5415
1,141000,86.75974795682815,0.0081353759765625,2.9715777587890626,0.5281
1,141500,87.85414397998905,-0.0704168701171874,1.7033343505859375,0.5153
1,142000,88.62629246676615,0.060223388671875,0.26953369140625,0.5031
1,142500,88.39187004957748,0.0561602783203125,1.9932421875,0.4919
1,143000,89.17719788699415,-0.0121246337890625,1.8522515869140623,0.4822
1,143500,89.67621962612591,-0.092886962890625,1.53093017578125,0.4737
1,144000,89.15304606240689,-0.0758660888671875,-0.5836425781250001,0.4669
1,144500,86.26148592649206,-0.2498150634765625,-0.4279083251953125,0.4618
1,145000,85.85026317083972,-0.10164794921875,-0.2715838623046875,0.4585
1,145500,86.32860040568298,-0.0262115478515625,1.6640948486328124,0.4567
1,146000,88.23529411764616,0.05191162109375,2.278331298828125,0.4567
1,146500,89.28277499340683,0.02898193359375,1.9511663818359373,0.4585
1,147000,88.71525637115265,0.0024151611328125,1.5372979736328125,0.4623
1,147500,86.83068017365744,0.002869873046875,1.2202001953125,0.4677
1,148000,86.12208202613172,0.0610760498046875,0.764437255859375,0.4751
1,148500,84.8537966058969,0.0247265625,0.6522613525390626,0.4837
1,149000,83.60001576780951,-0.0457397460937499,0.471678466796875,0.4935
1,149500,80.75370121130607,-0.031409912109375,0.084625244140625,0.5042
1,150000,79.69109680742265,0.0064990234375,-0.3126678466796875,0.5158
1,150500,78.7268301816107,-0.035777587890625,-1.3629272460937505,0.5281
1,151000,81.63265306122928,-0.0350689697265624,0.756983642578125,0.5408
1,151500,83.15402009331113,0.0031756591796874,0.560560302734375,0.5535
1,152000,84.17298328001446,-0.08263427734375,0.3622216796875,0.5663
1,152500,84.26966292134959,-0.01865478515625,-0.53798583984375,0.5788
1,153000,84.18031107679046,-0.0248358154296874,-2.014454956054688,0.5913
1,153500,84.79888441027579,-0.040157470703125,-2.3092407226562504,0.6031
1,154000,85.95988538682205,-0.0323284912109375,-3.5785235595703124,0.6143
1,154500,87.06251741446377,-0.01677490234375,1.4069366455078125,0.6247
1,155000,89.5099785037833,-0.092230224609375,0.88676513671875,0.6345
1,155500,90.26658244408804,-0.2851226806640625,-0.065343017578125,0.6433
1,156000,89.15304606240689,-0.072176513671875,-0.879984130859375,0.6511
1,156500,90.75537312325622,0.004954833984375,-0.2882208251953125,0.6576
1,157000,90.41120198378258,0.110390625,1.3869647216796874,0.6631
1,157500,89.33928435021065,-0.01875732421875,1.2567877197265624,0.6669
1,158000,87.08272859215984,-0.12183837890625,0.9196209716796876,0.6691
1,158500,81.25719433461572,-0.02588134765625,0.53725341796875,0.6697
1,159000,79.01887409213184,-0.048719482421875,0.253433837890625,0.6689
1,159500,77.02182284980782,-0.003623046875,0.096861572265625,0.6669
1,160000,76.76528017549056,0.0940948486328125,-0.73650146484375,0.6638
1,160500,77.15707789185375,-0.0025836181640625,-1.057825927734375,0.6597
1,161000,80.10680907876912,-0.014522705078125,-1.8334619140625,0.6549
1,161500,83.14569238385288,-0.0091943359375,-2.6650451660156254,0.6497
1,162000,85.2542359061332,-0.0755865478515624,0.6822949218750001,0.6442
1,162500,87.09594650632118,-0.1555242919921874,1.4844152832031248,0.6384
1,163000,89.28571428571844,-0.148233642578125,1.1910205078125002,0.6325
1,163500,88.20802919708159,0.0490692138671875,-0.0374462890624999,0.6267
1,164000,87.27868508113217,-0.0344635009765625,-0.7932299804687499,0.6218
1,164500,86.33093525179943,0.0027587890625,-0.482928466796875,0.6177
1,165000,84.91944272508636,0.056197509765625,-0.2433209228515625,0.6148
1,165500,84.48146622081816,0.0553619384765624,0.0300750732421875,0.6137
1,166000,84.33414753296978,-0.009278564453125,1.9375982666015623,0.6141
1,166500,86.95652173913075,-0.123555908203125,1.921864013671875,0.6161
1,167000,89.02548725637439,-0.086258544921875,1.64546630859375,0.6197
1,167500,88.55035000180527,-0.061507568359375,1.1951104736328126,0.6246
1,168000,84.86562942008561,0.047410888671875,0.86546875,0.6307
1,168500,81.92576458496148,0.0561474609375,0.6125177001953125,0.6381
1,169000,81.49112658248723,0.0200091552734375,0.6405743408203125,0.6462
1,169500,82.07934336525372,-0.004561767578125,0.6579241943359375,0.655
1,170000,78.84270616342191,-0.0435150146484374,0.5830511474609376,0.664
1,170500,77.58829550005669,-0.121259765625,0.220068359375,0.6729
1,171000,76.04562737642708,-0.04664794921875,0.0242816162109375,0.6811
1,171500,76.29749824417188,0.0324127197265625,-7.21326904296875,0.6884
1,172000,77.69822095321962,-0.0551611328125,-2.433134765625,0.6952
1,172500,82.7586206896526,0.0404241943359375,-0.3959759521484375,0.7008
1,173000,84.12238950947197,0.0191162109375,0.3514605712890625,0.705
1,173500,84.2215805292002,-0.1108343505859375,0.9467230224609376,0.7081
1,174000,83.68200836819602,-0.1827020263671875,0.7536755371093751,0.7099
1,174500,81.07639357538328,-0.0616912841796875,0.626129150390625,0.7106
1,175000,79.27399041196338,-0.083427734375,0.5291314697265626,0.7102
1,175500,75.56675062972458,-0.0386334228515625,0.463919677734375,0.7087
1,176000,75.18702770780841,0.032286376953125,0.7718994140625,0.7062
1,176500,75.59210526315715,-0.0298699951171875,1.3611773681640624,0.7027
1,177000,78.94736842105357,-0.0423309326171875,1.2233087158203124,0.6981
1,177500,78.56520544180205,-0.031898193359375,0.90872314453125,0.6927
1,178000,78.4388080732707,-0.0567877197265625,0.5715905761718749,0.6868
1,178500,79.36507936507633,0.06656494140625,0.3960882568359375,0.6808
1,179000,80.73671497584502,0.0885736083984375,0.319300537109375,0.6749
1,179500,81.5217391304359,-0.029278564453125,0.058004150390625,0.6685
1,180000,81.5217391304359,0.047315673828125,-0.218359375,0.6622
1,180500,82.48919048763031,0.0452215576171875,-0.44283203125,0.6559
1,181000,83.24114898530073,-0.0093310546875,0.0654632568359375,0.6495
1,181500,84.15147265076875,-0.0717987060546875,-0.1227154541015625,0.6431
1,182000,85.20725641859713,-0.1263232421875,-0.1671771240234375,0.6366
1,182500,86.70982759268028,-0.07537109375,0.5292431640625,0.6299
1,183000,88.49217248008681,-0.0602972412109375,0.9842626953125,0.6229
1,183500,90.63444108761637,0.050684814453125,0.7680792236328126,0.6159
1,184000,88.32147138313864,0.0515582275390625,0.529066162109375,0.6087
1,184500,86.79305798824839,0.03331787109375,0.3655932617187501,0.6021
1,185000,85.34850640113414,-0.0021075439453125,-0.058492431640625,0.5955
1,185500,82.72574444823252,0.014716796875,-0.5106744384765625,0.5887
1,186000,81.53871685087391,0.01196044921875,-1.3867083740234376,0.5820000000000001
1,186500,80.35698348951216,-0.02372314453125,-5.0215655517578135,0.5753
1,187000,82.3045267489729,-0.008660888671875,-1.6124554443359376,0.5687
1,187500,83.32814607324491,0.05282470703125,-1.0197552490234374,0.5629
1,188000,84.71956224350251,-0.02937744140625,1.1228460693359374,0.5579999999999999
1,188500,87.20930232558291,0.0376641845703125,1.2142645263671876,0.5537
1,189000,87.97484888843567,0.0208709716796875,0.6701446533203125,0.5501
1,189500,86.8760065421317,0.032550048828125,0.3099902343749999,0.5474
1,190000,85.34850640113414,-0.0603631591796875,-2.967860107421875,0.5459
1,190500,82.55348956427923,-0.0910491943359375,-6.07505126953125,0.5451
1,191000,85.41281468923138,0.0301702880859375,1.3549310302734376,0.5454
1,191500,88.02744605070306,0.01858642578125,2.0485906982421875,0.5465
1,192000,90.09009009009053,0.026903076171875,1.6223870849609376,0.5477
1,192500,85.83026208026132,-0.074111328125,0.5940783691406251,0.5495
1,193000,85.2272727272718,-0.1552606201171875,-0.4018804931640625,0.5519
1,193500,85.20223420647045,-0.08405029296875,1.0409918212890623,0.5546
1,194000,84.7457627118612,0.0331683349609375,1.0984796142578126,0.5577
1,194500,83.68028694000769,0.094666748046875,0.735889892578125,0.5609
1,195000,83.152830571917,-0.000745849609375,0.5853234863281251,0.5635
1,195500,83.91608391608685,0.05909423828125,0.5256201171875,0.5656
1,196000,83.65662192960166,0.030667724609375,0.4494830322265625,0.5673
1,196500,82.63183171645309,-0.0383392333984375,0.373021240234375,0.5687
1,197000,79.5755968169801,-0.0023571777343749,0.323187255859375,0.5694
1,197500,77.0474409705624,0.02592041015625,0.0287353515625,0.5693
1,198000,75.78442307287557,-0.0405419921875,-7.930565185546875,0.5687
1,198500,77.02182284980782,0.0406378173828125,-2.0334399414062503,0.5673
1,199000,76.9176806667991,0.0395037841796875,0.309652099609375,0.5653
1,199500,76.82458386683679,-0.2072454833984375,0.9824957275390624,0.5627
1,200000,75.04831508629672,-0.129290771484375,0.8591607666015624,0.5596
1,200500,74.39178493387541,-0.0740008544921874,0.6908184814453125,0.5564
1,201000,73.08160779536914,0.037386474609375,0.5903240966796875,0.5531
1,201500,72.7486313767819,0.122008056640625,0.514859619140625,0.5498
1,202000,72.5513905683194,0.033541259765625,-3.209373168945313,0.5465
1,202500,71.96558593512106,0.0884771728515625,-6.722940673828125,0.5434
1,203000,77.7233504055492,0.0329962158203124,-0.4955133056640626,0.5407
1,203500,83.60207014604221,-0.2329583740234375,-0.4165319824218751,0.5384
1,204000,86.83068017365744,-0.1072381591796875,1.494036865234375,0.5365
1,204500,87.51136161677923,-0.0021673583984375,1.9840924072265629,0.5352
1,205000,87.42486651411394,0.0378497314453125,2.7713006591796883,0.5347
1,205500,86.9959659345587,0.05395751953125,3.0038726806640623,0.5347
1,206000,88.36524300441431,0.085343017578125,2.7929693603515617,0.5353
1,206500,89.37218346811348,0.09743896484375,2.4441510009765626,0.5364
1,207000,89.82035928143624,0.0045574951171875,1.7863122558593751,0.5379
1,207500,68.99151148253137,0.0273358154296875,1.1472442626953123,0.5398
1,208000,65.90988299726388,-0.031505126953125,0.3447454833984375,0.5419
1,208500,64.72491909384969,-0.0338336181640625,-0.0658746337890625,0.5443
1,209000,66.47681702121079,-0.0383013916015625,-1.1329443359375,0.547
1,209500,70.33997655334045,-0.1388482666015625,-1.85977783203125,0.5501
1,210000,72.38052379491991,-0.0588226318359375,-1.18615234375,0.5535
1,210500,73.7527275231754,-0.0605804443359375,0.3366107177734375,0.557
1,211000,76.82458386683679,0.0279412841796874,0.363397216796875,0.5607
1,211500,75.75535404206045,0.0613165283203125,0.2290771484375,0.5644
1,212000,74.71980074719828,-0.0158367919921875,-0.7729388427734375,0.568
1,212500,79.23299515851173,-0.0303863525390625,-1.15774169921875,0.5715
1,213000,78.92037320090942,0.0066351318359375,-0.8991644287109375,0.5749
1,213500,78.53403141361156,-0.0622222900390625,-0.674613037109375,0.5784
1,214000,75.92282432379102,0.053402099609375,-0.542408447265625,0.5820000000000001
1,214500,75.56675062972458,-0.0085772705078125,-0.4363372802734374,0.5859
1,215000,75.56675062972458,-0.1524652099609375,-3.5157659912109374,0.5902
1,215500,76.48245322634227,-0.0903289794921875,-7.7277288818359375,0.5949
1,216000,80.35049824639509,-0.0198114013671875,-2.7502264404296874,0.5997
1,216500,87.13308994357797,0.0226373291015625,0.8113031005859375,0.6045
1,217000,91.60305343511035,-0.0175408935546875,2.8402301025390626,0.6093
1,217500,94.30672263824772,0.0263616943359375,3.2736230468750005,0.6142
1,218000,94.1504660845959,0.10086181640625,2.6410449218750003,0.6193
1,218500,92.53635367190272,-0.0656365966796874,1.71103271484375,0.6245
1,219000,88.23529411764616,0.0348004150390625,0.8616192626953125,0.6296
1,219500,81.4474153297693,0.06066162109375,0.949625244140625,0.6346
1,220000,75.75757575757835,-0.039866943359375,1.064757080078125,0.6393
1,220500,72.41552212775244,0.0849798583984375,1.2865283203124998,0.6436
1,221000,72.09852457017374,-0.002095947265625,1.0788525390625,0.6475
1,221500,72.63922518159616,0.0261639404296875,1.034722290039063,0.6509999999999999
1,222000,72.74113166740959,0.010108642578125,1.168197021484375,0.6541
1,222500,72.81553398058142,-0.112193603515625,0.9594775390625,0.6567
1,223000,68.61716085017176,-0.0088043212890625,-1.3300042724609376,0.6587
1,223500,68.0206960825287,-0.0439678955078125,-4.687236938476564,0.6606
1,224000,71.34363852556413,0.0456933593749999,0.0097430419921875,0.6626
1,224500,74.06940120358314,0.0597845458984375,0.0037353515625,0.6648
1,225000,76.3358778625953,-0.0660797119140625,-0.037608642578125,0.6668
1,225500,75.77955123756897,0.0105157470703125,0.2269976806640625,0.6687
1,226000,76.02238950009709,0.010142822265625,0.2348211669921875,0.6708
1,226500,76.43312101910584,-0.016883544921875,0.0147772216796875,0.6731
1,227000,75.22698537655991,0.0394384765625,0.0414508056640625,0.6753
1,227500,74.73791996457703,-0.025335693359375,0.052889404296875,0.6781
1,228000,73.89162561576245,0.0225848388671875,0.0487127685546874,0.6813
1,228500,74.57690339525462,0.042730712890625,0.0546954345703125,0.6852
1,229000,75.09386733416977,-0.174849853515625,0.0483746337890625,0.6895
1,229500,74.47038326443689,-0.105810546875,0.0679296875,0.6945
1,230000,74.3483821892037,-0.066962890625,0.0738543701171875,0.7001
1,230500,74.16563658838356,0.002503662109375,0.0532916259765625,0.7064
1,231000,74.9986739519169,0.0743243408203125,0.068092041015625,0.713
1,231500,75.31147463364752,0.003377685546875,0.0603436279296875,0.7198
1,232000,75.47169811320602,0.0446081542968749,0.0616680908203125,0.7266
1,232500,74.24319168984047,-0.0788177490234375,0.0543310546875,0.7335
1,233000,73.0816077953742,-0.183251953125,0.023519287109375,0.7401
1,233500,71.05200257934979,0.0579620361328125,0.024833984375,0.7461
1,234000,70.51108071135292,0.021005859375,0.0219964599609375,0.7511
1,234500,69.76744186046861,0.0696905517578125,0.02625244140625,0.7554
1,235000,70.7723613595708,0.05129150390625,0.001456298828125,0.7587
1,235500,72.11538461538024,-0.041534423828125,-0.1892626953125,0.7611
1,236000,73.16666274362376,0.034573974609375,-3.4326196289062505,0.7629
1,236500,75.29297637959606,-0.0440533447265625,-6.374890747070313,0.7643
1,237000,79.78723404255214,0.0115032958984374,1.4582000732421876,0.7655
1,237500,82.69631422079209,-0.0414373779296875,3.006770629882813,0.7667
1,238000,86.51660934302461,-0.0221759033203124,3.0406121826171875,0.7682
1,238500,90.0071666973773,-0.00053955078125,2.8322180175781253,0.7699
1,239000,91.32420091324444,0.0379266357421875,2.44411865234375,0.7722
1,239500,91.69620041054074,0.0039019775390625,2.007404174804688,0.7753
1,240000,90.07250010163445,0.02233642578125,1.5943798828125,0.7793
1,240500,88.23810452806066,0.024439697265625,1.167142333984375,0.7845
1,241000,80.86253369272654,0.0264306640625,0.8754223632812501,0.7913
1,241500,79.45544137466358,-0.133504638671875,0.937520751953125,0.8001
1,242000,78.12499999999704,-0.14590087890625,-0.241566162109375,0.8106
1,242500,72.88219424460365,0.0503253173828125,-7.151674194335937,0.8226
1,243000,77.37110734543505,0.055347900390625,-0.391107177734375,0.8357
1,243500,84.90482669096416,0.0080230712890625,0.615718994140625,0.8495
1,244000,88.49557522123932,-0.0276922607421875,0.84070068359375,0.8637
1,244500,86.17914713329814,-0.016201171875,0.5995465087890626,0.8779
1,245000,84.32093972578856,-0.078809814453125,0.5810723876953126,0.8915
1,245500,81.41112618724301,0.021258544921875,0.469556884765625,0.9041
1,246000,78.34467500367394,0.0885009765625,0.4010064697265625,0.9156
1,246500,76.43312101911138,-0.04577880859375,0.36876953125,0.9255
1,247000,73.00988305948883,-0.0115264892578124,0.2962554931640625,0.9334
1,247500,73.1487525065392,-0.0180657958984375,0.17539306640625,0.9389
1,248000,73.61963190184069,-0.0200384521484375,0.5185430908203126,0.9413
1,248500,78.7880824957569,0.0093572998046875,1.048873291015625,0.9405
1,249000,80.59818625741252,-0.0140380859375,0.8512994384765626,0.9363
1,249500,81.96721311475733,-0.1122882080078125,0.646668701171875,0.9291
1,250000,82.48585022661875,-0.0741632080078125,0.4482574462890625,0.9192
1,250500,84.8442044203625,0.0059527587890624,0.6645092773437501,0.9068
1,251000,86.58049007824825,0.0038677978515625,0.4907916259765626,0.8921
1,251500,84.7457627118612,0.083123779296875,0.468685302734375,0.8753
1,252000,85.0018031013347,0.0402154541015625,0.347978515625,0.8568
1,252500,84.62411347517963,-0.05843994140625,-0.5826818847656251,0.8368
1,253000,83.33333333333678,-0.0253759765625,-0.6818994140625,0.8157
1,253500,85.63419293218377,0.009136962890625,-0.663505859375,0.7939
1,254000,86.3250906802232,0.0481683349609375,-0.73335693359375,0.7718
1,254500,86.6921902760047,0.000184326171875,-0.6364276123046875,0.7499
1,255000,86.58008658008859,0.0290209960937499,-0.13374755859375,0.7285
1,255500,87.32227383322304,-0.0116156005859375,0.8383001708984374,0.7082
1,256000,87.98456048043526,-0.0176434326171875,0.775357666015625,0.6891
1,256500,88.62629246676242,0.0003704833984375,0.7034124755859377,0.6714
1,257000,85.65269703336229,0.056943359375,0.67340576171875,0.6549
1,257500,84.25762958338079,0.0135687255859375,0.459639892578125,0.6397
1,258000,82.98447637992518,-0.128438720703125,0.29828857421875,0.6257
1,258500,80.5369127516835,-0.0419537353515625,0.0736114501953125,0.6132
1,259000,82.08139210619241,0.0590765380859375,-0.45623291015625,0.602
1,259500,83.15866527455844,-0.0212249755859375,-0.8221380615234376,0.5923
1,260000,83.44923504867944,0.0671002197265625,-1.9207025146484376,0.584
1,260500,84.51153082723405,0.05798828125,-4.9972509765625,0.5769
1,261000,86.3473306604763,0.0406292724609375,0.0019195556640625,0.5710000000000001
1,261500,88.97234405181015,-0.0048223876953125,1.545517578125,0.5659
1,262000,92.30769230769552,-0.0608197021484375,1.328658447265625,0.5616
1,262500,91.75384615384355,-0.0961993408203125,1.09458251953125,0.5583
1,263000,91.15555453056812,-0.0354150390625,0.9030310058593752,0.5556
1,263500,90.69385547084804,-0.0325628662109375,0.5398712158203125,0.5537
1,264000,91.04704097116958,0.082967529296875,0.3589953613281249,0.5526
1,264500,89.95284334873672,0.0690789794921875,0.1333135986328125,0.5523
1,265000,88.88089344687616,0.033511962890625,0.1360961914062499,0.5528
1,265500,87.87796055464727,-0.0296759033203125,0.3389715576171875,0.5541
1,266000,88.23529411764616,0.0440008544921875,0.0807965087890625,0.5559
1,266500,85.77464788732081,0.0710888671875,0.1575018310546875,0.5582
1,267000,84.7869642964758,-0.078577880859375,0.081397705078125,0.5611
1,267500,85.5920114122725,0.0144482421875,0.544515380859375,0.5647
1,268000,88.57898240608563,-0.0081695556640625,0.6793603515625001,0.5689
1,268500,88.06598738476316,-0.0035968017578124,0.52006591796875,0.5732
1,269000,87.00606194608588,-0.07201416015625,0.3196282958984375,0.5779
1,269500,84.38818565400695,0.0047613525390624,0.2217547607421876,0.583
1,270000,84.63634413216249,0.028248291015625,0.2376739501953125,0.5881
1,270500,84.52506815218844,-0.023759765625,0.120040283203125,0.5933
1,271000,83.91608391608021,0.009361572265625,-0.314793701171875,0.5985
1,271500,85.58336084516769,0.0833221435546875,-0.33599365234375,0.6035
1,272000,87.56130069065162,0.0466131591796875,-0.492022705078125,0.6082
1,272500,89.22569914173502,-0.039931640625,-0.7940454101562501,0.6125
1,273000,89.552238805968,0.044583740234375,-1.3056915283203123,0.6161
1,273500,91.33644753332186,0.0394244384765625,-1.6977606201171875,0.6189
1,274000,90.92761887243536,0.049771728515625,-0.3698504638671875,0.6211
1,274500,90.75726217754632,-0.0509320068359375,0.6956689453125,0.6221
1,275000,92.02453987730247,0.0012219238281249,0.6400579833984374,0.6219
1,275500,88.38236218775091,0.031912841796875,0.4762939453125,0.6206
1,276000,85.34926942958735,0.0448077392578125,0.3083636474609375,0.6183
1,276500,81.63265306122298,-0.0210662841796875,0.00883056640625,0.6151
1,277000,74.82170619154529,-0.023968505859375,-0.0744781494140625,0.6111
1,277500,72.71757971420234,-0.1000714111328125,-0.074000244140625,0.6058
1,278000,73.89162561576245,-0.0120373535156249,-0.282469482421875,0.599
1,278500,74.27100948459743,0.0371270751953125,-0.521199951171875,0.5909
1,279000,74.62686567164423,-0.0240716552734375,-1.1581622314453126,0.5817
1,279500,73.57715705438504,0.0553649902343749,-1.2101092529296875,0.5715
1,280000,74.92915620877271,0.0041998291015624,-2.367261962890625,0.5603
1,280500,77.82101167315021,0.0254486083984375,-5.3998602294921865,0.5484
1,281000,80.73250738457372,0.0572833251953125,-5.8522314453125,0.5361
1,281500,83.61694298147589,0.0465826416015624,-1.3206671142578126,0.5232
1,282000,87.11987122630647,-0.020030517578125,2.546763916015625,0.51
1,282500,91.32420091323654,0.051065673828125,1.9046270751953125,0.4963
1,283000,90.634930473768,0.0260064697265624,2.183541259765625,0.4824
1,283500,92.28648190045293,0.038699951171875,2.3001177978515632,0.4686
1,284000,92.91510494752865,-0.0340753173828125,1.907127685546875,0.4543
1,284500,89.95502248875923,0.0225799560546875,1.5518280029296874,0.4399
1,285000,86.2053183934324,0.023892822265625,1.1448583984375,0.4257
1,285500,83.87710735277645,0.007435302734375,0.8090301513671875,0.4122
1,286000,80.86253369272654,0.014534912109375,0.00994140625,0.3991
1,286500,81.14221520302928,0.05412109375,-0.193370361328125,0.3863
1,287000,80.95539955135933,-0.0044769287109375,0.1346527099609375,0.3736
1,287500,80.53691275167736,0.002698974609375,0.7829217529296876,0.3611
1,288000,86.02545707012628,0.023626708984375,0.513984375,0.3488
1,288500,85.52798671485839,-0.00316162109375,0.1439398193359374,0.3365
1,289000,84.73052748888325,-0.118902587890625,-0.237296142578125,0.3244
1,289500,82.5309491059175,-0.022900390625,-0.513681640625,0.3125
1,290000,83.14252754379694,0.029398193359375,-0.8479998779296876,0.3008
1,290500,83.37225833047552,-0.0213848876953125,-1.962374267578125,0.2886
1,291000,83.10249307478799,0.0527154541015625,-1.9225817871093749,0.2761
1,291500,83.01352858012916,0.04617919921875,-5.265678100585936,0.2635
1,292000,83.86110504476979,-0.0005426025390624,-5.612963256835939,0.2504
1,292500,85.35350484953938,0.0403704833984375,-4.6696533203125,0.2367
1,293000,87.84773060029379,-0.01310791015625,-3.9998657226562497,0.2224
1,293500,88.97952404886145,0.01031494140625,-2.0727984619140627,0.2072
1,294000,89.77578274043086,-0.0268487548828125,4.22658447265625,0.1912
1,294500,90.25032092425936,0.036424560546875,3.3318731689453127,0.1743
1,295000,91.46341463415344,0.0003363037109374,3.024055786132813,0.1565
1,295500,91.66256433206208,0.0442138671875,3.1479278564453126,0.1376
1,296000,91.80016016409564,0.038099365234375,2.4477423095703124,0.1207
1,296500,91.73918625230873,-0.0750726318359375,1.74377685546875,0.1047
1,297000,89.82035928143624,-0.0622332763671875,0.6701806640625,0.0893
1,297500,86.56014703266752,-0.0064520263671875,-2.617779541015625,0.0749
1,298000,84.53158887317294,-0.0414630126953125,-2.9160034179687497,0.0618
1,298500,83.33333333333017,0.0547027587890625,-4.399801635742189,0.0497
1,299000,82.72031178358691,0.0431427001953124,-2.4269171142578125,0.0386
4,500,128.40665832092847,0.02755615234375,4.586903686523439,0.1168
4,1000,128.02641172021578,-0.0104663085937499,3.8390698242187495,0.1321
4,1500,129.12143802688752,-0.0030419921875,3.1615893554687498,0.1477
4,2000,129.58963282937592,-0.01997802734375,2.6524810791015625,0.1635
4,2500,129.58963282936134,0.113458251953125,2.1490100097656253,0.1795
4,3000,129.5896328293833,0.0491973876953125,1.7225335693359374,0.1959
4,3500,129.46283607656042,-0.1045819091796875,1.509261474609375,0.2125
4,4000,129.45725031652415,-0.08737060546875,1.057828369140625,0.2293
4,4500,129.25743746951724,-0.021837158203125,0.2844390869140625,0.2324
4,5000,129.2180200222549,0.061370849609375,-2.2981439208984376,0.2356
4,5500,128.6989588717493,0.0582421875,-0.094781494140625,0.2391
4,6000,128.92394833183047,0.043994140625,-2.0254089355468747,0.2427
4,6500,128.79080714384293,0.0244244384765624,-0.9978912353515624,0.2466
4,7000,128.49620218921498,0.020450439453125,-4.3300238037109375,0.2507
4,7500,128.20512820510982,-0.0673614501953125,-3.7684094238281247,0.2549
4,8000,128.07040417210914,-0.089056396484375,-3.771619262695312,0.2591
4,8500,127.2170934006522,0.03203125,-4.2660302734375,0.2635
4,9000,127.65957446807772,-0.000650634765625,-3.5365838623046875,0.2678
4,9500,127.5777205583358,-0.014527587890625,-2.5760437011718755,0.272
4,10000,127.78788581404643,0.039190673828125,-2.467525634765625,0.2763
4,10500,128.361060780768,0.0097784423828124,-2.0413751220703125,0.281
4,11000,128.9029185357581,-0.1691503906249999,3.8148529052734377,0.2857
4,11500,130.42149641128137,-0.0745654296874999,6.130653076171875,0.2904
4,12000,130.8131403944425,-0.016781005859375,5.0319458007812505,0.295
4,12500,131.15258649047286,-0.020147705078125,4.066654663085938,0.2997
4,13000,132.27643572391858,-0.0176879882812499,3.452333374023437,0.3043
4,13500,131.64861968205932,0.1366693115234375,2.636588134765625,0.3089
4,14000,132.08903315555904,-0.0142059326171875,1.907412109375,0.3135
4,14500,131.63967611336085,-0.0299224853515625,1.009246826171875,0.318
4,15000,132.13420208111955,-0.037667236328125,0.552366943359375,0.3225
4,15500,132.86168396679716,0.024796142578125,-0.1219287109375,0.327
4,16000,133.03769401329737,-0.0062725830078125,0.147957763671875,0.3315
4,16500,132.6876257323699,-0.0137445068359374,-0.0500714111328125,0.336
4,17000,132.856786243959,-0.0464837646484375,1.1484613037109377,0.3407
4,17500,133.03769401329737,-0.0357525634765625,2.7229815673828126,0.3451
4,18000,133.03769401332713,0.030242919921875,1.86530029296875,0.3492
4,18500,133.28022813935735,0.0277496337890625,0.8231304931640625,0.3532
4,19000,132.64044286772156,0.0053063964843749,0.6508618164062501,0.3569
4,19500,131.8561837523689,-0.066318359375,0.041812744140625,0.3602
4,20000,130.7162140401109,-0.055101318359375,0.03794921875,0.3632
4,20500,129.919088468586,0.0124432373046875,0.0747784423828125,0.3659
4,21000,129.4544574365214,0.0584423828125,-0.1339752197265625,0.3683
4,21500,129.0039958561552,0.0626324462890625,-0.6179064941406249,0.3704
4,22000,128.7553648068647,-0.00904296875,-3.357818603515625,0.372
4,22500,128.7553648068647,-0.0115985107421874,-2.6363543701171874,0.3733
4,23000,128.5474814127275,0.075941162109375,-3.3702587890625004,0.3741
4,23500,128.70684030107142,0.029324951171875,-0.8444244384765626,0.3746
4,24000,128.7553648068647,-0.0398956298828125,-3.511958618164063,0.3747
4,24500,129.01342932298763,0.0086053466796874,-5.370078125,0.3743
4,25000,128.7825003461137,0.046396484375,1.21555908203125,0.3736
4,25500,129.0800889877597,0.185040283203125,3.610900268554688,0.3726
4,26000,129.37849110003694,0.13354736328125,2.898704833984376,0.3711
4,26500,129.08232671876897,-0.0024029541015625,2.300488891601563,0.3695
4,27000,127.08388719878928,-0.146904296875,1.103978271484375,0.3677
4,27500,123.81468728690336,-0.2953924560546875,-2.225740966796875,0.3659
4,28000,119.34879177979442,-0.2289825439453125,0.533475341796875,0.3639
4,28500,115.9485659230734,-0.13785888671875,1.1881787109375002,0.3619
4,29000,114.17777202743144,-0.080418701171875,0.6185656738281251,0.36
4,29500,112.90039992383356,-0.0240484619140625,0.5757763671875,0.3582
4,30000,112.39503252513398,-0.0184027099609375,-0.1442523193359375,0.3564
4,30500,112.85570522864664,0.0218109130859375,0.244010009765625,0.3546
4,31000,114.73209124460315,0.0407379150390625,-3.328548583984375,0.3529
4,31500,116.2790697674503,0.003084716796875,-3.415740966796875,0.3513
4,32000,117.17114825580124,0.009835205078125,-4.152942504882812,0.3497
4,32500,118.07886318899288,0.029364013671875,-4.22464599609375,0.348
4,33000,118.78100880954412,0.016673583984375,-4.0288330078125,0.3461
4,33500,119.94772277227732,-0.0338079833984375,-0.3519842529296875,0.3439
4,34000,121.17090909090795,-0.153043212890625,5.237412719726564,0.3417
4,34500,123.22569737865128,-0.14680419921875,4.451321411132814,0.3393
4,35000,124.42395369090424,-0.1176312255859375,3.663985595703125,0.3365
4,35500,123.36124311684654,-0.0428118896484375,2.753040771484375,0.3333
4,36000,122.01215504580686,0.007208251953125,2.075386962890625,0.3298
4,36500,119.3986843324228,0.0179229736328125,1.7895172119140623,0.3259
4,37000,116.2790697674503,0.0186395263671875,1.4665533447265626,0.3215
4,37500,113.89082564760336,-0.0198931884765625,1.13260498046875,0.3167
4,38000,111.9184166728452,-0.025269775390625,-0.9021673583984376,0.3115
4,38500,111.7318435754118,-0.03592041015625,-2.1379907226562502,0.3059
4,39000,111.2625698324062,0.039569091796875,-3.0662426757812504,0.2999
4,39500,111.82346832814817,0.010384521484375,-2.534898681640625,0.2936
4,40000,113.08623619371258,-0.038330078125,0.8366107177734374,0.2873
4,40500,116.23236292194656,-0.021397705078125,2.2999749755859376,0.2809
4,41000,118.29612430791472,-0.0059796142578125,1.9932568359375,0.2746
4,41500,119.14019810087036,0.0578265380859375,2.1953131103515617,0.2685
4,42000,119.66409809862044,0.0749822998046874,1.4006005859375,0.2628
4,42500,119.48048237520617,-0.004774169921875,0.8961273193359375,0.2576
4,43000,118.87693601238372,-0.075596923828125,0.72938720703125,0.2531
4,43500,117.56570953999656,-0.06221923828125,0.8420178222656249,0.2489
4,44000,116.7315175097254,0.0032916259765624,0.7190393066406251,0.2451
4,44500,116.51072301149512,0.051378173828125,0.543238525390625,0.2417
4,45000,115.97526549267783,0.0459429931640625,0.2789202880859375,0.2388
4,45500,115.07844756399795,0.018843994140625,-2.91109619140625,0.2364
4,46000,113.77744360902304,0.0140765380859375,-4.598017578125001,0.2344
4,46500,112.55807429020012,0.0032196044921875,-1.2967840576171874,0.2327
4,47000,111.9006920703824,0.0085260009765625,0.5086456298828126,0.2314
4,47500,112.15655276284596,0.03671142578125,1.7198974609375,0.2303
4,48000,114.81647675150646,0.03818359375,1.67403564453125,0.2295
4,48500,115.6566742841775,-0.0007653808593749,1.387420654296875,0.2289999999999999
4,49000,116.26200951783127,-0.0071099853515624,1.2008050537109374,0.2286
4,49500,115.83011583010928,-0.022445068359375,1.0804449462890626,0.2282
4,50000,114.94785425821333,-0.04510498046875,0.9103192138671874,0.2277
4,50500,114.52838466263115,0.064649658203125,0.5174487304687501,0.2269
4,51000,114.11459089192672,0.03712646484375,0.1077178955078125,0.2262
4,51500,114.6232978792944,0.0211480712890625,-0.02021484375,0.2255
4,52000,115.80651722876404,-0.0509814453125,0.0740966796875,0.2247
4,52500,116.40750408443571,-0.016551513671875,-0.036038818359375,0.2238
4,53000,116.16683254773749,0.02889404296875,-0.898515625,0.2228
4,53500,117.38935144193114,0.0479736328125,-1.5424481201171871,0.2217
4,54000,118.89902236874585,0.044017333984375,-2.079359130859375,0.2205
4,54500,119.45632975057336,0.01720703125,-1.5585772705078125,0.2191
4,55000,118.68738065489916,0.019447021484375,-2.8963726806640624,0.2177
4,55500,116.65440588517473,-0.0138580322265625,-1.5518914794921876,0.2163
4,56000,114.4743769743718,0.0023095703125,-2.5112823486328124,0.2149
4,56500,112.82455395072384,-0.028355712890625,-2.5051086425781253,0.2134
4,57000,110.8682906899602,-0.0785955810546875,1.2217767333984375,0.212
4,57500,110.99354197714948,-0.0896795654296875,2.502982177734375,0.2106
4,58000,113.7092461618018,-0.0431646728515625,2.097091064453125,0.2091
4,58500,113.61528318270616,0.0856707763671875,1.74822021484375,0.2073
4,59000,112.66228525309351,0.1230975341796875,1.4619873046875,0.2055
4,59500,111.09907235621624,0.067078857421875,0.954293212890625,0.2037
4,60000,109.09090909089556,-0.1234027099609375,0.2974517822265625,0.2017
4,60500,108.89371390860951,-0.1040826416015625,0.632427978515625,0.1997
4,61000,108.8929219600662,0.0561749267578124,-0.3365045166015625,0.1977
4,61500,109.52995550718236,0.0112005615234375,-1.5786663818359377,0.1961
4,62000,110.864658976438,0.0150183105468749,-3.002457885742188,0.1946
4,62500,112.2839566448702,0.0766998291015625,-3.7454437255859374,0.1933
4,63000,113.83573437410924,0.0461785888671875,-2.7982440185546875,0.1921
4,63500,115.39681367843744,-0.0130200195312499,-1.2967199707031252,0.1911
4,64000,116.42535128584642,-0.0671313476562499,1.8925201416015631,0.19
4,64500,117.7244274926587,-0.0816778564453125,2.649276733398437,0.1889
4,65000,118.57707509882084,-0.0438232421875,2.362514038085937,0.1879
4,65500,117.99463193149306,-0.0170098876953125,1.9941387939453128,0.187
4,66000,117.63920660979235,0.0091796875,2.7730474853515625,0.1863
4,66500,117.5604739685722,0.00167724609375,2.318302001953125,0.1857
4,67000,115.6735881379887,-0.0007037353515624,1.720179443359375,0.1851
4,67500,112.43953630601744,0.00511474609375,1.5761993408203128,0.1846
4,68000,109.51387445437722,0.0651715087890625,0.6855810546875001,0.184
4,68500,105.95048104304028,0.0778399658203125,0.57945556640625,0.1834
4,69000,103.98613518197604,-0.0898541259765625,0.2567510986328125,0.1825
4,69500,102.6190546607419,-0.0255413818359375,0.182794189453125,0.1816
4,70000,103.3810834110823,-0.0121990966796875,0.6550396728515625,0.1806
4,70500,104.83698035967036,0.0229681396484374,0.1464178466796875,0.1795
4,71000,106.3038229376224,0.0844183349609375,-0.194674072265625,0.1782
4,71500,107.74137931034208,-0.00192138671875,-0.5351873779296875,0.1769
4,72000,109.35943370323852,-0.0135894775390625,-0.35938720703125,0.1755
4,72500,110.89076253890396,-0.00416259765625,-0.3042547607421875,0.1741
4,73000,111.82911107150792,-0.027587890625,-0.2749755859375,0.1728
4,73500,112.7253290476704,0.007757568359375,-0.11126220703125,0.1715
4,74000,114.75104720434256,-0.01462158203125,0.051868896484375,0.1702
4,74500,115.6069364161838,-0.051614990234375,-0.00616943359375,0.1689
4,75000,114.09613398095227,-0.0531732177734375,0.0485565185546875,0.1678
4,75500,111.22200122292448,-0.0167523193359374,0.1341876220703125,0.1669
4,76000,107.8296282384547,-0.029259033203125,0.153626708984375,0.1661
4,76500,104.78664945601356,-0.0048358154296874,0.0966607666015625,0.1655
4,77000,102.33729353810696,0.01544677734375,-0.0212060546875,0.1652
4,77500,100.64873949580874,0.08085693359375,-1.575338134765625,0.1651
4,78000,100.0700507614176,0.134969482421875,-4.344966430664063,0.165
4,78500,101.52284263959248,0.02993896484375,-2.640455932617188,0.1652
4,79000,101.82206785999684,0.0314306640625,-1.838839721679688,0.1657
4,79500,103.24789538306138,-0.0092041015625,-2.246702270507812,0.1665
4,80000,104.97024953772474,-0.0187213134765625,-1.333369140625,0.1677
4,80500,108.68354280993503,-0.108699951171875,1.8836901855468748,0.1689999999999999
4,81000,112.87692613297634,-0.057470703125,2.7052282714843754,0.1705
4,81500,115.55466273827832,-0.0091680908203125,2.2596746826171867,0.1723
4,82000,116.60253147375845,-0.0153985595703125,1.7264276123046876,0.1744
4,82500,115.66508815224611,-0.0142120361328125,1.4948187255859375,0.1769
4,83000,113.40579710145909,-0.0001641845703124,1.4593249511718749,0.1799
4,83500,108.22902007258352,0.0384271240234374,1.26200439453125,0.1833
4,84000,102.21465076661175,-0.0516448974609375,1.1246282958984375,0.1873
4,84500,98.29625628453806,-0.0065588378906249,1.0439105224609375,0.1918
4,85000,96.72795497185464,0.0036676025390624,0.9292852783203124,0.1969
4,85500,96.97477931903852,0.007669677734375,0.8021075439453125,0.2029
4,86000,98.55248348421776,0.0331915283203125,0.7865203857421875,0.2095
4,86500,99.50248756219702,-0.0614794921875,2.0859259033203124,0.2167
4,87000,101.15023533259944,0.1117315673828125,-1.8359735107421875,0.2244
4,87500,103.97365313089875,0.0402587890625,-3.1667822265625,0.2325
4,88000,105.83809029580368,-0.151888427734375,-5.202965698242188,0.2413
4,88500,107.05788149165308,-0.2260430908203125,-5.051400146484375,0.2505
4,89000,107.90109079615722,-0.264656982421875,-2.5282635498046875,0.2602
4,89500,109.25280083125388,-0.2634625244140625,0.361319580078125,0.2704
4,90000,110.76535867023084,-0.16029541015625,0.6931298828125,0.2809
4,90500,110.67823119578053,-0.0942742919921875,0.6847943115234375,0.2919
4,91000,109.6043956043878,-0.060281982421875,0.351279296875,0.3031
4,91500,107.14285714286764,-0.0439642333984375,1.2989593505859374,0.3143
4,92000,107.1428571428462,-0.03658935546875,1.1727862548828123,0.3256
4,92500,105.70913884007484,-0.0094500732421875,1.0866748046875,0.3368
4,93000,103.61725690349247,0.0088305664062499,0.9622747802734376,0.3477
4,93500,101.43013698630446,0.0055224609375,0.8539837646484375,0.3583
4,94000,99.9089700996661,0.0125701904296875,0.7095111083984376,0.3686
4,94500,99.76626929842035,0.0305755615234375,0.5159588623046876,0.3787
4,95000,100.8403361344492,-0.061597900390625,-0.273209228515625,0.3887
4,95500,102.41585865114658,0.0120703125,-0.744798583984375,0.3984
4,96000,103.9268673355709,0.0081249999999999,0.0030810546874999,0.4085
4,96500,105.64218316373235,0.0353753662109374,0.0150042724609375,0.4185
4,97000,106.57757249942384,0.037005615234375,-0.0268792724609375,0.4285
4,97500,106.83578510667088,-0.0065625,-0.0712274169921875,0.4385
4,98000,106.80282170896147,-0.010941162109375,0.285242919921875,0.4483
4,98500,106.46262373420264,0.0173822021484375,0.4988861083984375,0.4579999999999999
4,99000,106.9443132216092,0.060162353515625,0.4617218017578125,0.4677
4,99500,106.00706713780345,-0.03518798828125,0.414425048828125,0.4775
4,100000,103.8320945534229,0.0327001953125,0.4072979736328125,0.4873
4,100500,101.83908045977464,0.0421099853515625,0.3793420410156249,0.4971
4,101000,99.97740563530192,0.0356707763671875,0.3303546142578125,0.5069
4,101500,98.61238136323604,0.038985595703125,0.30365478515625,0.5165
4,102000,98.36324417601168,0.0800738525390625,0.2670526123046875,0.526
4,102500,98.68421052632436,-0.0388092041015624,0.251134033203125,0.5353
4,103000,99.47499562861132,0.0170544433593749,0.2116119384765625,0.5445
4,103500,100.70822483613496,0.031121826171875,0.1732037353515624,0.5531
4,104000,101.81625311318192,0.0257147216796875,0.1466168212890625,0.5614
4,104500,102.91524459612924,0.023468017578125,0.4560357666015625,0.5692
4,105000,104.36914176918356,0.0867962646484375,0.361824951171875,0.5764
4,105500,105.49281063738678,0.0847552490234374,-0.0553582763671875,0.5829
4,106000,106.76156583629673,0.0632049560546875,0.5257904052734376,0.5885
4,106500,105.5847494198976,0.049495849609375,0.5636517333984375,0.5933
4,107000,104.89607007793543,-0.0828643798828125,-0.159508056640625,0.5973
4,107500,103.08500520005362,-0.141942138671875,-0.162470703125,0.6003
4,108000,101.23153756544212,0.016339111328125,-0.2098406982421875,0.6023
4,108500,100.1967604870944,0.0358367919921875,-0.2009454345703125,0.6035
4,109000,100.3344481605424,0.0275189208984375,-0.5220086669921875,0.6038
4,109500,100.33444816052368,-0.03135986328125,-1.0665814208984377,0.6033
4,110000,100.87091652309648,-0.0515362548828124,-1.0688470458984374,0.6019
4,110500,102.43849858307884,-0.0293255615234374,-0.1983978271484375,0.5997
4,111000,104.83282674772218,0.006788330078125,-0.0838299560546875,0.5969
4,111500,107.14340579153271,0.016473388671875,0.246875,0.5935
4,112000,108.59718687734428,-0.0118304443359375,0.2017608642578125,0.5895
4,112500,109.2118651631968,-0.0091033935546875,0.1976446533203125,0.5852
4,113000,108.89292196008417,0.049677734375,0.165260009765625,0.5806
4,113500,108.89292196006384,0.0301922607421875,0.1061456298828125,0.5757
4,114000,108.69762487177049,0.003133544921875,0.07561767578125,0.5703
4,114500,109.768275203069,-0.0050006103515625,0.0886187744140625,0.5647
4,115000,110.05302953925872,0.0149121093749999,0.0646759033203124,0.5589
4,115500,111.14313972919874,-0.0356549072265625,0.0973468017578125,0.5531
4,116000,112.50918866696726,-0.025947265625,-0.057308349609375,0.5467
4,116500,114.0728737941695,0.0141229248046874,-1.5302801513671869,0.5405
4,117000,115.50828245023534,0.0043682861328125,-1.2728430175781251,0.5342
4,117500,117.37264372288668,0.017342529296875,-0.800638427734375,0.5279
4,118000,118.74471682163116,-0.104769287109375,0.618956298828125,0.5216
4,118500,120.29870129869872,-0.0975384521484375,2.217449951171875,0.5149
4,119000,120.648569867003,-0.0403857421875,1.3465521240234375,0.5081
4,119500,119.55816394695192,-0.0201495361328125,0.1534613037109375,0.5011
4,120000,116.98884928251738,-0.0053192138671875,-0.1838623046875001,0.4941
4,120500,112.8535571913658,0.0078265380859375,0.0960394287109375,0.4869
4,121000,108.70189880791312,0.0251318359375,-0.7289776611328125,0.4799
4,121500,105.69988548051764,0.028651123046875,-0.6108843994140625,0.4728
4,122000,103.98613518197604,-0.0012408447265625,-0.211265869140625,0.4657
4,122500,100.34262766076752,0.0036956787109374,-0.126785888671875,0.4587
4,123000,99.7935651334738,-0.0389447021484375,-0.0703076171875,0.4518
4,123500,99.75865252265244,-0.0090313720703124,-0.0611041259765625,0.4452
4,124000,100.65027674963724,0.04617431640625,-0.0436346435546875,0.4387
4,124500,102.04081632653656,0.0596484375,0.016954345703125,0.4323
4,125000,102.08261617900736,0.014178466796875,0.0724902343749999,0.426
4,125500,103.27022375214835,-0.09866943359375,-1.4849530029296876,0.4201
4,126000,104.06088640275006,-0.05488037109375,-1.7596514892578126,0.4143
4,126500,106.283422459887,-0.087298583984375,-1.3430816650390625,0.4085
4,127000,107.83296974845176,-0.0919451904296875,-0.4293914794921875,0.4026
4,127500,110.92777069026084,-0.0358892822265625,0.5814898681640625,0.3964
4,128000,112.89367486513076,0.0101416015625,0.7540936279296875,0.39
4,128500,113.82398375301425,0.0061285400390625,0.0778326416015624,0.3834
4,129000,114.44270768962456,-0.0086688232421874,-0.169102783203125,0.3769
4,129500,113.6753238383723,0.0076196289062499,-0.130618896484375,0.3704
4,130000,112.51134660334748,0.0125018310546875,-0.0625122070312499,0.3641
4,130500,111.1915601530792,0.0230072021484375,-0.107659912109375,0.3579
4,131000,110.80645825045048,0.0033502197265625,-1.405570068359375,0.3522
4,131500,111.58902752882176,-0.04411376953125,-1.9914849853515624,0.3467
4,132000,112.62221229921371,-0.0208331298828125,0.2228546142578125,0.3415
4,132500,115.16314779269042,-0.032977294921875,0.9487139892578124,0.3365
4,133000,115.81944434151065,-0.068443603515625,1.1510760498046877,0.3317
4,133500,115.40956340956686,-0.16975830078125,0.9669256591796876,0.3274
4,134000,114.40219780220264,-0.256815185546875,0.05527587890625,0.3237
4,134500,111.5411671507899,-0.18395751953125,0.1627020263671875,0.3207
4,135000,108.811287384139,0.0469256591796874,-4.483001098632814,0.3188
4,135500,106.72871226827648,0.166632080078125,-5.6269250488281255,0.3179
4,136000,106.58815497525164,-0.12057373046875,0.7541479492187501,0.318
4,136500,109.93401759530708,-0.1027838134765625,2.8394360351562504,0.3193
4,137000,114.33788754597688,0.0064776611328124,2.7315435791015625,0.3219
4,137500,116.21144078821028,0.0073406982421875,2.587997436523437,0.3256
4,138000,117.20712420142544,0.0799652099609375,0.1234307861328125,0.3302
4,138500,116.25922447336198,0.2154522705078125,-6.878541870117187,0.3356
4,139000,115.30498828255033,0.0945947265625,-4.777198486328127,0.3418
4,139500,117.13300777857748,-0.2081884765625,1.1729663085937498,0.3488
4,140000,119.18225301656756,-0.1150958251953125,2.5288555908203127,0.3567
4,140500,118.86091466289476,-0.0955731201171875,1.9196978759765624,0.3652
4,141000,119.14437488141986,-0.04526123046875,0.7726702880859376,0.3743
4,141500,119.4748639636192,0.0712554931640625,-3.3604858398437503,0.3839
4,142000,119.10924982649588,0.0341986083984375,-2.5533984375000003,0.3941
4,142500,118.19127132087056,-0.04106689453125,-1.7797314453125002,0.4045
4,143000,117.32499790599664,-0.0795367431640624,-1.3177178955078126,0.4153
4,143500,116.643180145123,-0.071551513671875,-2.2183782958984377,0.4262
4,144000,115.80338580337992,-0.1635296630859375,-2.0794097900390622,0.437
4,144500,115.40966010733872,-0.4658758544921875,-2.0598217773437497,0.4475
4,145000,116.28088662791536,-0.5568206787109375,-3.026702880859375,0.4575
4,145500,117.18749999998688,-0.5174603271484375,-0.067362060546875,0.467
4,146000,117.18750000001234,-0.2568640136718749,3.899486083984376,0.4759
4,146500,117.18749999998808,-0.1890423583984375,-0.0982568359374999,0.4841
4,147000,115.73970375722324,-0.4552423095703125,-2.675166015625,0.4917
4,147500,114.2776764324576,-0.5628637695312501,-2.7628192138671874,0.4985
4,148000,112.05846184290527,-0.5126715087890625,-0.85948486328125,0.5043
4,148500,110.94473175214524,-0.5123345947265625,5.173319702148438,0.5093
4,149000,112.17795567786672,-0.1905181884765625,4.915883789062502,0.5133
4,149500,113.498643853385,0.006552734375,3.9604516601562496,0.5162
4,150000,113.40087265086588,-0.0334295654296875,3.239188232421875,0.5183
4,150500,112.70234241097604,0.029588623046875,2.73908203125,0.5193
4,151000,111.96347793458756,-0.1087957763671875,2.1308197021484383,0.5192
4,151500,111.31725417439966,-0.429345703125,0.7110821533203125,0.5179
4,152000,111.3172541743944,-0.5047698974609375,-0.256209716796875,0.5154
4,152500,111.41195691300707,-0.4107531738281249,-2.5749243164062503,0.5118
4,153000,112.0351631672263,-0.2799743652343749,-5.7804736328125,0.5073
4,153500,112.98882800221932,-0.2436761474609375,-3.382861328125,0.5019
4,154000,112.78195488720976,-0.146617431640625,-2.7347894287109376,0.4959
4,154500,112.986704048243,0.055087890625,-2.873896484375,0.489
4,155000,112.61275585378183,0.0017596435546874,0.1265655517578124,0.4813
4,155500,112.04866847749342,0.060931396484375,-0.34507568359375,0.4729
4,156000,111.32172470978692,0.1300482177734375,-3.1935925292968754,0.4639
4,156500,111.111111111103,0.102249755859375,-2.434783935546875,0.4541
4,157000,111.11111111110895,0.013804931640625,-1.1751910400390624,0.4438
4,157500,111.75780274657134,-0.123463134765625,4.953756713867186,0.4327
4,158000,113.58388221619116,-0.01184326171875,5.324507446289064,0.4209
4,158500,114.84802531812728,0.012730712890625,4.46356201171875,0.4087
4,159000,114.3970887559453,-0.0809320068359375,3.4767755126953133,0.3961
4,159500,113.64963660448498,-0.4211273193359375,2.7989251708984373,0.3833
4,160000,112.81026863997025,-0.3288543701171875,2.513161010742188,0.3704
4,160500,111.39741285888408,-0.1784674072265625,2.10291259765625,0.3574
4,161000,110.66210772198944,-0.34166015625,1.7723016357421877,0.3446
4,161500,110.0917431192743,0.0167138671875,1.6949462890625002,0.332
4,162000,109.3168897578628,-0.1380859375,1.4544317626953127,0.32
4,162500,108.60976887123496,-0.348424072265625,1.0456390380859375,0.3086
4,163000,108.49909584086848,-0.3112750244140625,0.6429656982421875,0.2981
4,163500,108.49909584086848,-0.2905456542968749,0.5036041259765625,0.2884
4,164000,108.7149125541875,-0.2150091552734375,0.3010699462890625,0.2797
4,164500,109.63090714020188,-0.081380615234375,-0.2482775878906249,0.2717
4,165000,110.9762646995242,-0.009881591796875,-1.7052825927734376,0.2646
4,165500,112.1434207619215,0.0484326171875,-1.532440185546875,0.2583
4,166000,113.41096303964213,0.06088623046875,-2.10250732421875,0.2526
4,166500,114.76635926399818,0.0756536865234375,-1.2473321533203126,0.2477
4,167000,115.69816974317928,0.104588623046875,-3.236619873046875,0.2437
4,167500,116.17337377415838,-0.054427490234375,0.9877313232421876,0.2402
4,168000,117.03418895433704,0.022052001953125,2.732701416015625,0.2374
4,168500,118.50798294482787,0.0778192138671875,2.63901611328125,0.2351
4,169000,117.94478997519823,0.0802752685546875,2.32504150390625,0.233
4,169500,116.5357098029344,0.0418780517578124,1.7573693847656249,0.231
4,170000,113.85199240985776,0.023206787109375,0.890269775390625,0.2291
4,170500,109.0714484962564,0.1465020751953125,0.353675537109375,0.2271
4,171000,105.32373827757448,0.1224932861328124,0.061492919921875,0.2251
4,171500,103.82025711882534,0.0853485107421875,-0.021219482421875,0.2229
4,172000,103.99975970203104,-0.0090704345703125,0.0293951416015625,0.2209
4,172500,105.01225964641056,0.07234375,0.0494805908203125,0.2189999999999999
4,173000,106.006559718815,0.09220947265625,0.008577880859375,0.2173
4,173500,106.69798888443452,0.0878112792968749,-0.0840618896484375,0.2156
4,174000,107.5541037158038,0.1855419921875,-1.3323779296875,0.214
4,174500,108.49909584086848,0.0612652587890625,-1.866930541992188,0.2127
4,175000,110.18282629507831,0.1043817138671875,-0.9330944824218752,0.2119
4,175500,111.35441723157516,0.157908935546875,-2.7110791015625,0.2116
4,176000,113.0496623354722,0.0260498046875,-5.736572875976562,0.2117
4,176500,114.91740584557547,0.0247418212890625,-3.304835815429688,0.2125
4,177000,116.71874999999136,-0.1937213134765624,-2.8581140136718752,0.2137
4,177500,118.2018898221357,-0.3207598876953125,-0.3501812744140625,0.2156
4,178000,119.08768731484058,-0.2097393798828124,0.769052734375,0.2179
4,178500,120.15617140531208,-0.0907135009765625,2.945731201171875,0.2205
4,179000,120.13204819277551,-0.0168951416015625,2.502830200195312,0.2236
4,179500,119.1493069306938,0.2736859130859375,1.5631896972656252,0.2269999999999999
4,180000,116.6389286327472,0.1445172119140625,0.7410711669921874,0.2306
4,180500,112.46174770486392,-0.0231732177734374,0.818868408203125,0.2343
4,181000,108.5670253891895,0.01304443359375,1.0671978759765626,0.2384
4,181500,105.1581898999956,0.1301385498046875,0.8673663330078126,0.2424
4,182000,101.4206407143942,0.2669451904296875,0.332362060546875,0.2461
4,182500,100.3344481605424,0.0013372802734375,0.1637353515625,0.2495
4,183000,100.18604027894273,0.03835693359375,-0.436859130859375,0.2525
4,183500,100.99839823128592,0.0328124999999999,-0.3709454345703125,0.2547
4,184000,101.90342219352463,-0.0087890625,0.973521728515625,0.2563
4,184500,104.8025089936381,0.072913818359375,2.0405694580078126,0.2571
4,185000,108.49091714666288,0.0841265869140625,1.580069580078125,0.2569
4,185500,109.47731488444369,0.0312408447265625,1.0662628173828126,0.2561
4,186000,110.1212898003118,-0.03504638671875,0.3801062011718751,0.2547
4,186500,110.25386431945373,-0.0289190673828125,0.04944091796875,0.2527
4,187000,109.4890510948901,-0.0570166015625,0.2795111083984375,0.2501
4,187500,109.4890510948901,0.0940228271484375,0.1334820556640625,0.2471
4,188000,109.31833592597393,0.1609637451171874,-0.0935382080078125,0.2436
4,188500,109.44118702883884,0.06406005859375,-1.422293701171875,0.2399
4,189000,109.4890510948901,0.117099609375,-1.3389459228515626,0.2365
4,189500,109.60354421595925,0.0721435546875,-1.388707275390625,0.2334
4,190000,109.88242792211192,0.1113421630859375,-4.33800048828125,0.2305
4,190500,110.01350942635466,0.1054571533203125,-5.626749267578125,0.2279
4,191000,109.7159670930105,0.00236572265625,-4.018735961914064,0.2257
4,191500,109.17795200760553,0.01927490234375,-2.59318115234375,0.2238
4,192000,108.59316770186018,0.1179998779296875,-2.2159765625,0.2225
4,192500,107.14285714286764,0.3228521728515625,-3.036015014648437,0.2219
4,193000,106.08202927813768,0.195052490234375,-2.915008544921875,0.2218
4,193500,105.1286169660712,-0.0555462646484374,-2.670569458007813,0.2224
4,194000,104.09616290445842,-0.0964312744140625,-2.41297119140625,0.2238
4,194500,103.37695635917407,0.018004150390625,-2.09254150390625,0.2259
4,195000,103.432130584192,-0.1342718505859375,2.7062457275390632,0.2289
4,195500,105.12681159419893,-0.0610760498046875,6.426048583984375,0.2325
4,196000,109.34045689019712,0.059237060546875,5.97909423828125,0.2367
4,196500,113.123486682819,0.114591064453125,4.942952880859375,0.2411
4,197000,114.27571971754884,0.087862548828125,3.7631976318359377,0.2457
4,197500,114.0684410646242,0.0064727783203125,2.52345947265625,0.2506
4,198000,113.0115357350108,-0.0269281005859375,1.6263336181640624,0.2559
4,198500,111.4715470163446,0.050667724609375,1.2280718994140625,0.2615
4,199000,109.51391465676136,0.098729248046875,1.178419189453125,0.2676
4,199500,107.49763830474994,0.093182373046875,1.12956298828125,0.2737
4,200000,106.65575241936014,0.0370819091796875,1.0903277587890623,0.2802
4,200500,106.41047485814585,0.0859759521484375,-0.11546630859375,0.2872
4,201000,106.42487340874168,0.30378173828125,-3.152630615234375,0.2946
4,201500,107.34784591941984,0.527474365234375,-3.9664801025390624,0.3023
4,202000,108.97892148892728,-0.055889892578125,-2.44242919921875,0.3102
4,202500,109.70860646218662,-0.7168511962890625,-1.0601123046874998,0.3184
4,203000,110.49723756905956,-0.6561859130859375,-0.0568316650390625,0.3269
4,203500,111.47076341678594,-0.47747802734375,2.290343017578125,0.3359
4,204000,113.40824602905975,-0.4427191162109375,2.1984936523437497,0.3451
4,204500,113.817491806098,-0.664561767578125,1.7991668701171877,0.3547
4,205000,114.02212105252356,-0.5830029296875,1.5055456542968753,0.3647
4,205500,113.443432097001,-0.45490966796875,1.3690460205078123,0.3748
4,206000,111.97885672279575,-0.3347015380859375,1.11432861328125,0.3849
4,206500,110.52376195232904,-0.113548583984375,0.9448474121093752,0.3949
4,207000,109.09177309177198,-0.2035211181640625,0.7657781982421876,0.405
4,207500,107.7934362934392,-0.3097845458984375,0.6322222900390626,0.4147
4,208000,107.06583629892296,-0.2640142822265625,0.5567303466796875,0.4236
4,208500,106.8289136341006,-0.1771734619140624,-0.4137536621093749,0.4317
4,209000,107.52688172043152,-0.115745849609375,-1.2841894531250002,0.4389
4,209500,108.28616901518303,-0.0520397949218749,-1.432459716796875,0.4451
4,210000,109.70920775974108,0.0678826904296875,-1.14068603515625,0.45
4,210500,110.70666856249906,0.1246368408203124,-1.0034625244140625,0.4536
4,211000,111.6630341821336,-0.0133502197265625,-0.16636962890625,0.4558
4,211500,114.3237657864514,0.0493438720703124,0.5805450439453126,0.4567
4,212000,115.24066144988193,-0.3190997314453125,0.4766796875,0.4559
4,212500,115.02901140600244,-0.469261474609375,0.2051715087890624,0.4536
4,213000,114.45653599056077,-0.270537109375,0.2675640869140625,0.4499
4,213500,114.51422577684497,-0.0821630859375,0.105894775390625,0.4452
4,214000,114.54044840697412,0.0746759033203124,0.0904974365234375,0.4396
4,214500,113.24697803757029,0.0273565673828125,0.1637750244140625,0.4335
4,215000,110.6233538191346,0.21377197265625,-0.913082275390625,0.4272
4,215500,106.55824466620234,0.1810772705078125,-0.892586669921875,0.4209
4,216000,103.0927835051558,-0.1084332275390625,-0.5685736083984375,0.4147
4,216500,101.80954045080752,0.0452099609375,-0.3683782958984375,0.4089
4,217000,101.3172892788642,0.10857666015625,-0.2016717529296875,0.4037
4,217500,102.06299521818458,0.145718994140625,0.9280163574218748,0.3991
4,218000,103.56415405580574,0.17592529296875,0.1577886962890625,0.3955
4,218500,104.51895070186396,-0.310445556640625,-0.2002215576171875,0.3929
4,219000,104.00635470826094,-0.42672607421875,-0.114803466796875,0.3913
4,219500,104.1666666666627,0.6062017822265625,0.02780517578125,0.3909
4,220000,104.3416666666586,0.0101715087890625,0.431339111328125,0.3915
4,220500,108.07826086957972,-0.31624755859375,1.4414605712890631,0.3929999999999999
4,221000,109.61299569994884,-0.328502197265625,1.2050964355468752,0.3951
4,221500,110.3041709671504,-0.2713104248046875,0.8816827392578125,0.3975
4,222000,110.61915149537816,-0.167174072265625,0.705291748046875,0.4
4,222500,110.59672585675771,-0.0671990966796875,0.52584228515625,0.4021
4,223000,109.2511291868882,0.0387457275390625,0.4782611083984374,0.4041
4,223500,106.76608529742892,0.1254949951171875,0.435111083984375,0.4056
4,224000,104.84117757247957,0.2648736572265625,-0.5604071044921874,0.4068
4,224500,101.867572156207,0.3337322998046875,-2.505809326171875,0.4075
4,225000,101.25739742381106,0.5289129638671876,-5.7823583984375,0.4078
4,225500,101.9188660436472,-0.098760986328125,-3.396419067382813,0.4073
4,226000,102.598963827472,-0.344725341796875,-3.135394287109375,0.4061
4,226500,104.20185588130192,-0.5516009521484375,0.7958380126953124,0.4042
4,227000,106.7795960357536,-0.1576324462890625,0.7963134765625,0.4019
4,227500,108.99675036533792,-0.0108758544921875,0.747685546875,0.3991
4,228000,110.79229679125748,0.179835205078125,0.7543261718750001,0.3963
4,228500,111.26641314486857,0.2831707763671875,0.375362548828125,0.3937
4,229000,110.49723756905956,0.222369384765625,-1.879566650390625,0.3915
4,229500,109.52332943501187,0.30196044921875,-0.0876824951171875,0.3898
4,230000,108.63768957643153,0.3617077636718749,-1.026614990234375,0.3889
4,230500,108.20585504128891,-0.044761962890625,0.6723675537109375,0.3886
4,231000,107.500000000002,-0.0892419433593749,0.8866741943359374,0.3888
4,231500,106.94992374174277,0.0683319091796875,0.7126312255859375,0.3896
4,232000,106.34429351912156,0.1250885009765625,0.439107666015625,0.3909
4,232500,105.13745121330562,0.177352294921875,0.4102264404296875,0.3925
4,233000,103.22424847546928,0.218974609375,-2.426119384765625,0.3944
4,233500,101.18043844855389,0.06307373046875,-3.099776611328125,0.3967
4,234000,99.043188596025,0.0119488525390625,-4.541249389648439,0.3993
4,234500,98.15057980215208,-0.023636474609375,-3.99599365234375,0.402
4,235000,98.11072091546733,-0.250367431640625,-2.569699096679688,0.4047
4,235500,99.55333214222654,-0.4169061279296875,3.5339361572265617,0.4073
4,236000,103.77607807658536,-0.070052490234375,4.08807861328125,0.4097
4,236500,105.82010582010444,0.0087463378906249,3.1918432617187498,0.4117
4,237000,108.20392336638314,0.0743255615234375,2.4428277587890626,0.4135
4,237500,108.30324909747809,0.1429278564453125,0.3286315917968749,0.4149
4,238000,107.87275826533228,0.1527880859374999,0.18979248046875,0.416
4,238500,106.25077955210509,0.1763226318359375,-1.878673095703125,0.417
4,239000,104.1079622132259,0.0511199951171875,0.185223388671875,0.4178
4,239500,102.8010610079655,0.0517889404296875,1.2526397705078125,0.4185
4,240000,103.3465929151397,0.1412701416015625,1.1777545166015626,0.4191
4,240500,102.3890784982913,0.062589111328125,0.84662109375,0.4198
4,241000,102.55115078322665,-0.2495001220703125,0.7539898681640624,0.4205
4,241500,102.30131481238789,-0.382235107421875,-0.1130157470703125,0.4211
4,242000,104.6902353349189,-0.0864392089843749,-0.21995361328125,0.4216
4,242500,107.07136945311156,-0.000386962890625,-0.140040283203125,0.4221
4,243000,107.9914446820914,-0.02646484375,-2.031428833007813,0.4227
4,243500,107.78667437491484,-0.0707501220703125,-3.681055908203125,0.4233
4,244000,106.95187165774728,-0.0259320068359375,-3.517232666015625,0.4238
4,244500,107.21431813248108,-0.54281494140625,2.8686865234375,0.4244
4,245000,110.70110701108725,-0.3458062744140625,3.3033074951171875,0.4248
4,245500,110.70110701106424,-0.169891357421875,2.5511724853515627,0.4251
4,246000,110.15389823623684,0.0737530517578125,1.8181689453125,0.4251
4,246500,109.29307756462808,0.05420654296875,1.4876849365234377,0.4246
4,247000,108.54742369543747,0.0867425537109375,1.3640106201171878,0.4236
4,247500,107.74913945093336,0.1074652099609375,1.342542724609375,0.4221
4,248000,107.16233151253697,0.08922607421875,1.1325408935546877,0.4202
4,248500,106.76868813289092,0.0692095947265625,0.5862030029296876,0.4181
4,249000,106.42001436076312,0.0879852294921875,0.5263751220703126,0.4159
4,249500,106.55908695816584,0.1138372802734375,0.7371691894531249,0.4137
4,250000,106.3829787233895,0.054881591796875,0.6835931396484375,0.4116
4,250500,106.9211514393124,0.094876708984375,0.4956561279296875,0.4097
4,251000,107.10962566844248,0.0490740966796875,-0.358358154296875,0.4079
4,251500,107.2785586506526,-0.3048150634765625,-0.9821209716796876,0.4063
4,252000,108.03559701999772,-0.392254638671875,-0.6597515869140625,0.4048
4,252500,109.211295034075,0.1557470703125,0.3705950927734375,0.4037
4,253000,110.23559466363064,0.0858477783203125,0.4294006347656249,0.4029
4,253500,110.56354460603144,-0.1211474609375,0.0690814208984375,0.4026
4,254000,110.05303760848972,0.1653399658203125,-0.0810809326171875,0.4026
4,254500,109.02771272443914,0.39781005859375,0.7916259765625,0.4029999999999999
4,255000,107.14285714286764,0.0682940673828125,0.6827142333984375,0.4039
4,255500,105.30451127818668,-0.02700927734375,0.300458984375,0.4051
4,256000,102.94664990119992,0.5075531005859375,0.313201904296875,0.4067
4,256500,100.74541063349857,0.925013427734375,0.425013427734375,0.4086
4,257000,98.9917241603564,0.8200482177734375,0.1451947021484375,0.4107
4,257500,97.90391197261263,0.164288330078125,-0.2393438720703125,0.413
4,258000,98.03921568627992,-0.3372119140625,0.034383544921875,0.4153
4,258500,98.9536012424784,-0.5546337890624999,-0.58206298828125,0.4177
4,259000,99.99536408490911,-0.6295025634765625,-0.5225799560546875,0.4201
4,259500,103.07084220127962,-0.6200567626953125,1.43350830078125,0.4226
4,260000,105.1517199847538,-0.621025390625,1.5299200439453124,0.425
4,260500,106.17155167525664,-0.50212158203125,1.43593017578125,0.4271
4,261000,107.48263989074442,-0.189447021484375,1.0612414550781248,0.4288
4,261500,107.35683920980787,1.2714721679687502,0.236409912109375,0.4307
4,262000,107.52688172043152,1.7644134521484376,0.11925048828125,0.4325
4,262500,106.5833954048036,0.7702154541015624,0.102840576171875,0.4345
4,263000,105.464709731693,-0.0810437011718749,0.1843023681640625,0.4365
4,263500,104.1374420507258,-0.4868218994140625,-0.0614373779296875,0.4385
4,264000,102.64160885220134,-0.5228253173828126,-0.1394030761718749,0.4405
4,264500,101.47440506762511,-0.490771484375,-0.1213623046875,0.4427
4,265000,101.15852401567405,-0.4802630615234375,-0.0892059326171875,0.445
4,265500,102.04081632651688,-0.4009051513671875,-0.2948773193359375,0.4473
4,266000,101.3775510204102,-0.3688824462890625,-0.059815673828125,0.4498
4,266500,101.75606846235875,-0.232847900390625,-0.5626959228515626,0.4521
4,267000,101.86757215619514,-0.234642333984375,-0.7468200683593751,0.4541
4,267500,101.72140684115112,-0.07913818359375,-0.95846435546875,0.4558
4,268000,101.5648283575693,0.0025042724609374,-2.4994970703125,0.4571
4,268500,101.71912832931,0.1365338134765625,-5.647006225585938,0.4581
4,269000,102.04081632651688,-0.1873321533203125,-0.3499169921875,0.4587
4,269500,103.9838435374102,-0.0118273925781249,1.0729077148437498,0.4589
4,270000,106.5357142857218,0.1468701171875,1.7368005371093749,0.4587
4,270500,108.3574021260018,0.312755126953125,2.4447570800781246,0.4581
4,271000,108.7765327862324,0.0611749267578125,0.9941162109375,0.4571
4,271500,109.1884587870666,-0.4021533203125,0.3150677490234375,0.4555
4,272000,109.14868762333847,-0.28921875,0.802958984375,0.4534
4,272500,108.0416938447222,0.2339453125,0.56086669921875,0.4508
4,273000,107.49145909082684,0.8682293701171875,0.319443359375,0.4479
4,273500,108.24919399988885,0.849169921875,0.4431585693359375,0.4447
4,274000,106.95187165774728,0.1593994140625,0.4087493896484375,0.4412
4,274500,107.48203093554216,0.0258892822265625,0.3379022216796875,0.4376
4,275000,106.03513554445216,-0.1162603759765625,0.335972900390625,0.4341
4,275500,104.5891815363598,-0.0800732421875,0.2958984375,0.4308
4,276000,103.17125235090847,-0.0877587890625,0.2500738525390625,0.4279
4,276500,101.88701323283848,0.0387164306640624,0.1645849609375,0.4254
4,277000,101.01010101009396,0.0083935546874999,0.175245361328125,0.4232
4,277500,101.0101010101117,-0.0850115966796875,0.151749267578125,0.4213
4,278000,101.31790881791224,-0.0055078125,0.0793688964843749,0.4199
4,278500,102.2366597366558,0.0035009765624999,0.0789990234375,0.419
4,279000,103.06808134393653,0.014122314453125,-0.1890240478515625,0.4185
4,279500,103.59646820188286,0.20428466796875,-1.7927618408203123,0.4186
4,280000,104.10022503448428,0.1098419189453125,-2.7080548095703127,0.4191
4,280500,104.9940904166256,-0.0562786865234374,-2.810867309570313,0.4199
4,281000,105.64130788282392,-0.0093853759765624,-1.5113385009765627,0.4209
4,281500,106.57193605684051,-0.0431768798828125,-1.9583160400390631,0.4219
4,282000,107.42374758876372,0.052008056640625,-1.9466436767578128,0.4227
4,282500,107.82857584899249,-0.0858782958984374,-0.8259832763671875,0.4235
4,283000,108.71419228254128,-0.0588690185546875,0.5005517578125,0.4239
4,283500,109.92626820693415,-0.025751953125,0.65212646484375,0.4239
4,284000,110.60121098448175,0.0185821533203125,1.2125250244140626,0.4232
4,284500,110.0409258638042,0.1012432861328125,1.1584228515625,0.4219
4,285000,108.32727272727504,-0.0033306884765624,0.8765576171875,0.4197
4,285500,106.11026827010912,0.0135919189453125,0.6781176757812499,0.4167
4,286000,104.34782608696888,0.0763763427734375,0.741199951171875,0.4127
4,286500,103.99409238188588,0.0208917236328125,0.372711181640625,0.4079
4,287000,104.89961058315004,0.021551513671875,0.0577691650390625,0.4021
4,287500,106.00476953460108,0.1012249755859374,-3.107542114257813,0.3951
4,288000,108.67499512004034,0.0552227783203125,-0.965047607421875,0.3873
4,288500,111.223527394321,0.0821026611328125,-0.48287841796875,0.3787
4,289000,112.6658437665377,0.0348297119140625,-0.95785400390625,0.3697
4,289500,112.59660588173335,0.0144781494140624,-2.9768450927734382,0.3607
4,290000,111.38963903604832,-0.066240234375,-1.6711517333984376,0.3515
4,290500,110.55485967703444,-0.1187396240234374,0.7257043457031249,0.3426
4,291000,110.06190140135988,-0.0275128173828125,0.8853863525390626,0.3339
4,291500,109.86008526993272,0.0099859619140625,0.8874951171875001,0.326
4,292000,109.28961748632052,0.0158746337890625,0.5970831298828125,0.3189
4,292500,106.44228444316366,0.03353515625,-3.115372924804688,0.3127
4,293000,103.72252159262354,-0.044481201171875,-3.0367047119140627,0.3074
4,293500,101.38750404476107,0.0752362060546875,-1.8028912353515625,0.303
4,294000,100.16694490817255,-0.2810174560546875,2.360118408203125,0.2995
4,294500,100.58026175593466,0.036236572265625,2.2068475341796883,0.297
4,295000,102.39187888334448,0.150689697265625,1.2737493896484375,0.2954
4,295500,102.56410256411613,-0.01275634765625,0.6053729248046875,0.2945
4,296000,102.56410256409929,0.1927752685546875,0.8216375732421876,0.2943
4,296500,102.56410256409622,0.3662994384765625,-2.7937860107421875,0.2945
4,297000,103.30640359062944,-0.05503662109375,-2.715240478515625,0.2949
4,297500,104.55047469945144,-0.1037646484375,-4.263695068359375,0.2952
4,298000,106.00525351021992,0.0988043212890625,-1.2256445312500002,0.2954
4,298500,108.15534752449577,-0.17859375,3.426389770507813,0.2953
4,299000,110.81026182688892,-0.1714971923828125,2.681629638671875,0.2763
4,299500,109.89010989012286,-0.0862982177734375,1.2356201171875,0.2571
4,300000,108.7099856665035,-0.0208868408203124,-3.7503570556640624,0.2377
4,300500,104.60809387694016,0.1948193359375,-4.305003051757812,0.2181
4,301000,102.64458724666883,-0.0100354003906249,-3.588792724609375,0.1985
4,301500,101.40528694699644,-0.1662103271484375,1.1933673095703126,0.1786
4,302000,102.75406625426812,0.8114617919921875,5.777124633789063,0.1586
5,500,91.04704097116168,-0.0448040771484374,-1.4242932128906252,0.1604
5,1000,88.45106053935741,-0.26047607421875,-2.537554931640625,0.183
5,1500,86.66983703337408,-0.13305908203125,-3.976287231445313,0.2064
5,2000,85.2605058225013,0.024422607421875,-4.2169305419921885,0.2307
5,2500,84.74576271186797,0.0460107421875,-3.5358630371093747,0.2559
5,3000,85.65635471808352,0.065762939453125,-2.9449725341796875,0.2821
5,3500,86.73831390903284,0.105921630859375,-2.4553125,0.3091
5,4000,88.21087588210699,0.1062518310546875,2.160609741210937,0.3371
5,4500,91.32420091324444,0.0958782958984375,8.087077026367188,0.3472
5,5000,96.1306911379996,0.0356304931640625,6.9094189453125,0.3575
5,5500,96.54032860343504,-0.05037353515625,5.5925573730468745,0.3683
5,6000,96.25958446698256,-0.0212445068359375,4.578915405273436,0.3797
5,6500,96.3297281496618,0.0689605712890625,3.70349609375,0.3911
5,7000,90.90909090909528,-0.0038934326171875,2.622453002929688,0.4029
5,7500,88.44491357698887,0.0159112548828125,1.6409790039062502,0.4149
5,8000,86.80201779082536,0.0023529052734375,0.6383258056640626,0.4263
5,8500,85.95988538682205,-0.028267822265625,-0.108997802734375,0.4377
5,9000,88.22172071912226,-0.0638616943359375,-2.13254150390625,0.4489
5,9500,89.54792621814372,0.0031219482421875,-3.4652960205078127,0.4596
5,10000,90.87525486561276,0.04629150390625,-3.5847576904296874,0.4699
5,10500,92.30769230769552,0.10359130859375,-1.1681732177734376,0.4795
5,11000,94.327431059503,0.0495416259765625,3.900709228515625,0.4881
5,11500,98.82264150943772,0.017403564453125,3.3678466796875,0.496
5,12000,98.79967373572843,-0.0868829345703125,2.4083660888671874,0.5029
5,12500,98.04680020324592,-0.1148223876953125,0.652646484375,0.5099
5,13000,98.12931147540787,-0.0290667724609375,-0.6616589355468749,0.5157
5,13500,96.0,0.050980224609375,-0.973126220703125,0.5205
5,14000,93.48468111454936,0.2058209228515625,-2.039471435546876,0.5243
5,14500,91.38485887628588,0.1608489990234375,-3.54,0.5272
5,15000,89.68609865471079,0.094344482421875,-4.29959228515625,0.5291
5,15500,89.68609865471079,0.0324298095703124,-4.8337060546875,0.5309
5,16000,89.58061709390148,0.1528997802734375,-4.576951293945311,0.5321
5,16500,89.20409785392513,0.281715087890625,-3.803768310546875,0.5326
5,17000,88.89866197558649,0.232977294921875,-3.418455200195313,0.5327
5,17500,90.09009009009053,0.117205810546875,-3.2726397705078125,0.5323
5,18000,91.06503764037586,0.04668212890625,0.2181976318359375,0.5317
5,18500,93.66629525244912,0.0353228759765625,7.796134033203126,0.5311
5,19000,96.31781556348696,-0.0439312744140625,6.3861322021484375,0.5305
5,19500,97.92634757107533,-0.09481689453125,4.0346826171875,0.53
5,20000,99.6677740863828,-0.1625830078125,1.9790777587890624,0.5297
5,20500,96.65985177612828,-0.1628619384765625,1.5689105224609374,0.5295
5,21000,94.07964916439327,-0.1233050537109375,0.2068896484375,0.5294
5,21500,91.96539625373634,-0.03862060546875,-2.1925518798828127,0.5298
5,22000,90.36144578313429,0.0126983642578125,3.6270068359375,0.5307
5,22500,94.02299937583928,-0.0442401123046875,3.562083740234375,0.5317
5,23000,93.69855778400544,-0.1340118408203125,2.9225762939453133,0.5331
5,23500,93.03005032350686,-0.2300244140625,2.24787353515625,0.5345
5,24000,92.21358551493034,0.2624267578125,-0.114947509765625,0.5359
5,24500,89.95502248875923,0.3477276611328125,0.13974853515625,0.5367
5,25000,89.4000548017234,0.1611932373046875,-1.9782073974609369,0.5376
5,25500,89.59290356075168,0.005618896484375,-3.756007690429688,0.5378
5,26000,90.38663745892816,-0.060540771484375,-4.272635498046874,0.5371
5,26500,90.90909090908748,-0.1305474853515625,-4.1145654296875005,0.5351
5,27000,91.94965034965183,-0.0504840087890625,-4.635592651367189,0.5317
5,27500,93.42120844455292,0.1255401611328125,-4.7173529052734375,0.5281
5,28000,95.02154528560663,0.20435302734375,-4.21957763671875,0.5231
5,28500,96.32871089124689,0.3697290039062501,-3.4804376220703133,0.5165
5,29000,98.36065573770271,0.363831787109375,-2.9507171630859377,0.5079
5,29500,99.55080330596516,0.3501947021484375,-2.462054443359375,0.4991
5,30000,99.43889660483045,0.1790216064453124,-2.056515502929688,0.4885
5,30500,98.5801249748044,-0.0051422119140625,-1.719267578125,0.4758
5,31000,97.2598425196912,0.002586669921875,-1.386976318359375,0.4611
5,31500,94.48818897637086,0.0469366455078125,5.679194335937501,0.4447
5,32000,95.64015999597694,0.045164794921875,4.5744384765625,0.4287
5,32500,94.12318343201338,-0.010721435546875,3.99880859375,0.4107
5,33000,91.85600773478548,-0.081051025390625,6.864727172851563,0.3915
5,33500,88.1057268722489,-0.1562420654296875,6.869012451171875,0.3714
5,34000,90.6764353946987,-0.086065673828125,5.635420532226562,0.3506
5,34500,88.11915305276878,-0.015167236328125,4.648759155273439,0.3311
5,35000,84.62623413258072,0.1017724609375,3.7496936035156248,0.3099
5,35500,84.62623413258072,0.008033447265625,2.802752685546875,0.2883
5,36000,84.55257355132342,-0.0660528564453125,2.31801025390625,0.2664
5,36500,85.120055602119,-0.087998046875,1.516043701171875,0.245
5,37000,87.08272859215984,-0.00450927734375,-0.2709771728515625,0.2228
5,37500,89.30034876416643,0.0843609619140625,-0.454609375,0.2023
5,38000,91.66955918083872,0.0675885009765625,-0.7260400390624999,0.1833
5,38500,94.5432377511822,0.12625,-1.2119500732421875,0.1658
5,39000,97.88900551036586,0.047137451171875,-2.2778118896484374,0.1501
5,39500,101.48483849703608,-0.09048583984375,-3.349583740234375,0.1347
5,40000,104.52961672473648,-0.0511016845703125,-4.023941040039063,0.1216
5,40500,107.67678540095044,0.0168658447265625,2.108141479492188,0.1105
5,41000,111.55651179990176,0.0488836669921875,3.538539428710938,0.1018
5,41500,111.34164070613136,0.00172607421875,2.736100463867188,0.0955
5,42000,108.50000000000227,-0.0076263427734375,2.2097131347656247,0.0897
5,42500,102.36880235453734,0.2768963623046875,1.7682006835937505,0.0863
5,43000,95.08716323295924,0.1630364990234375,1.3097454833984377,0.0853
5,43500,82.52558051402264,-0.0102813720703125,0.24623046875,0.086
5,44000,81.5217391304359,-0.0882220458984375,-1.039613037109375,0.0885
5,44500,82.11429802719906,-0.1035089111328125,-1.1869671630859373,0.0926
5,45000,88.1057268722489,-0.1779547119140625,-3.956041870117188,0.0974
5,45500,87.73426798289374,-0.162855224609375,-2.095848388671876,0.1035
5,46000,87.54655146730047,-0.15412841796875,1.9294366455078125,0.111
5,46500,87.46355685130743,-0.167745361328125,2.48298828125,0.1197
5,47000,87.46355685131451,-0.1117437744140625,2.0428814697265625,0.1283
5,47500,83.23494312603103,0.0328546142578125,1.6713439941406252,0.1373
5,48000,77.72020725388684,0.029713134765625,1.3282153320312502,0.1475
5,48500,73.08036652775425,-0.028985595703125,1.0097314453125,0.158
5,49000,71.55307035491744,-0.0450750732421875,0.78147216796875,0.1689
5,49500,69.04487917146372,0.003001708984375,0.2960198974609375,0.1797
5,50000,68.85803334810075,0.0489349365234375,-0.7024658203125,0.1905
5,50500,68.33712984054338,0.0163140869140625,-1.4455883789062498,0.2007
5,51000,68.49788629243679,0.040982666015625,-1.1398199462890624,0.2107
5,51500,68.64988558352667,0.00468017578125,-1.216871337890625,0.22
5,52000,69.40487504446484,0.1079132080078125,-2.606275024414063,0.2281
5,52500,69.7841290486121,0.2062066650390625,-4.928849487304689,0.2349
5,53000,71.25890736342174,0.1195526123046875,-3.7301055908203127,0.24
5,53500,73.21473694850323,0.098726806640625,2.797269287109375,0.2435
5,54000,75.70382197803139,0.0783807373046875,3.1885040283203123,0.2451
5,54500,83.56545961002578,0.04071533203125,2.60831787109375,0.246
5,55000,83.20368936302839,0.0181561279296875,2.000582275390625,0.2452
5,55500,82.79105000734809,-0.020716552734375,1.3424560546875,0.2426
5,56000,81.74386920981145,-0.0899749755859375,0.415809326171875,0.2385
5,56500,80.59291553133589,-0.0926214599609375,-0.3600341796875,0.2332
5,57000,80.33482288828378,-0.11818115234375,-0.6319201660156251,0.2269
5,57500,81.74386920981145,-0.106298828125,-1.4421228027343749,0.2199
5,58000,83.12099155237348,0.077957763671875,-2.433063354492188,0.2127
5,58500,84.1859598933315,0.1556085205078125,-3.07244384765625,0.2054
5,59000,85.34850640113414,0.1051446533203125,-4.267604370117187,0.1977
5,59500,86.90828127899084,-0.0277728271484375,-4.21759521484375,0.1902
5,60000,87.98176096590116,-0.0818634033203125,1.541898193359375,0.1829
5,60500,89.7306495858008,-0.0053454589843749,2.3841571044921874,0.176
5,61000,92.16589861751004,0.018201904296875,1.86787109375,0.1692
5,61500,89.12770583488995,0.006680908203125,1.0969891357421877,0.163
5,62000,87.47680549921931,0.0244573974609374,0.8472650146484375,0.1573
5,62500,85.84039724742036,0.0272430419921875,-0.9855902099609376,0.1522
5,63000,81.5217391304359,0.066588134765625,-1.9011993408203125,0.1475
5,63500,80.60260869565259,0.144449462890625,-2.8650384521484376,0.1431
5,64000,80.1500405953995,0.256917724609375,-3.315087280273437,0.1387
5,64500,81.19079837618669,0.25569091796875,-3.3755572509765632,0.1341
5,65000,81.85745268504226,0.0692535400390625,-3.161956787109375,0.1291
5,65500,83.5905918842056,-0.0840472412109375,4.450673828125002,0.1231
5,66000,87.08272859215984,-0.08395751953125,4.1458544921875005,0.1166
5,66500,89.82289696951565,-0.1143096923828125,3.133670654296875,0.1093
5,67000,91.48896321070568,-0.0987066650390625,0.393583984375,0.1011
5,67500,91.41212885475198,-0.085927734375,-0.6422351074218751,0.0923
5,68000,89.41877794336153,-0.0279644775390625,-0.9882751464843752,0.0828
5,68500,88.65957685678671,-0.0119476318359375,-2.991459350585937,0.0727
5,69000,87.45586269958817,0.0948870849609374,-2.802880859375,0.0617
5,69500,86.3756442703822,0.195860595703125,-3.3080810546875004,0.0502
5,70000,85.34850640113414,0.0859283447265625,-3.780169067382812,0.0383
5,70500,84.04688224362505,-0.002373046875,-3.7170556640625,0.0263
5,71000,83.37155080872168,-0.0822021484375,-3.4255029296875,0.0139999999999999
5,71500,82.8729281767968,0.07892578125,-3.1633251953125,0.0018
5,72000,84.59860745348489,0.2079559326171874,-3.3324755859375,-0.0101
5,72500,85.82064408632505,0.1093951416015625,-2.5343023681640617,-0.0213
5,73000,87.3814796087407,-0.023831787109375,7.118121337890625,-0.0318
5,73500,90.36144578312653,-0.01936279296875,7.858507690429687,-0.0412
5,74000,93.87815412594136,0.0122906494140625,6.379830322265626,-0.0495
5,74500,93.81061541174628,-0.0209442138671875,4.944694213867186,-0.0566
5,75000,93.07291442353242,-0.04826904296875,3.5650756835937503,-0.0625
5,75500,92.16589861751004,-0.078092041015625,1.9226153564453128,-0.0672
5,76000,90.67119606833378,-0.12207763671875,1.5977435302734375,-0.0702
5,76500,91.2795369110474,-0.115330810546875,0.6467327880859375,-0.0717
5,77000,91.80792908150384,-0.02263916015625,-2.34743896484375,-0.0719
5,77500,92.31128707730105,0.029036865234375,-1.9355316162109373,-0.0708
5,78000,93.896713615022,-0.03021728515625,-2.332780151367188,-0.0689
5,78500,96.18833775600687,-0.0502239990234375,-0.8758203125,-0.0662
5,79000,98.3478900726264,0.0093994140625,-2.676868896484375,-0.0631
5,79500,100.49134800256502,0.0540020751953125,-3.2219311523437497,-0.0598
5,80000,102.1187524711027,0.0746746826171875,-3.697360229492188,-0.0563
5,80500,102.58067869435573,0.128731689453125,-3.536821899414062,-0.0528
5,81000,101.18043844856356,0.0887585449218749,-3.2473864746093755,-0.0497
5,81500,95.71031114846484,-0.0242071533203125,4.397496948242187,-0.0469
5,82000,93.39325406454816,-0.0899310302734375,6.09208251953125,-0.0453
5,82500,91.81520036849616,-0.1179534912109375,5.447108154296876,-0.0443
5,83000,89.82035928143624,0.06068603515625,4.4160968017578135,-0.0443
5,83500,84.25864320741337,0.2023040771484374,3.5513684082031247,-0.0457
5,84000,81.7104456702576,0.1772998046875,2.927286376953125,-0.0485
5,84500,79.78723404255214,0.0845556640625,2.3122027587890623,-0.0525
5,85000,78.96823847634063,-0.0247210693359375,1.61353515625,-0.0581
5,85500,78.71652878434057,-0.09216552734375,-0.3670318603515625,-0.0656
5,86000,79.05138339920794,-0.089395751953125,-0.369718017578125,-0.0742
5,86500,80.33367780701474,-0.0526141357421875,-0.93434326171875,-0.0837
5,87000,80.83837288184637,-0.0243017578125,-1.1146014404296876,-0.0939
5,87500,80.75370121130607,0.08146240234375,-2.287931518554688,-0.1048
5,88000,83.97130278075895,0.138837890625,-3.824198608398437,-0.1164
5,88500,86.91404177928099,0.1326812744140625,-3.717904052734375,-0.1287
5,89000,90.18044179292816,-0.0052368164062499,-3.565420532226564,-0.1407
5,89500,93.60374414977144,-0.092613525390625,-3.912063598632813,-0.1521
5,90000,96.13510190488051,-0.0825146484375,-2.9819189453125,-0.1631
5,90500,91.7768718305623,-0.0651654052734375,-2.553876342773438,-0.1736
5,91000,87.72692793931087,-0.0854425048828125,-0.1235394287109375,-0.1833
5,91500,81.63265306122298,-0.1403271484375,4.8923968505859365,-0.1917
5,92000,82.77210884354359,-0.1040350341796875,4.82530029296875,-0.1989
5,92500,82.63299232737427,-0.104970703125,3.573489990234375,-0.2049
5,93000,76.72634271099362,-0.173135986328125,1.026666259765625,-0.2087
5,93500,75.43203561617929,0.015819091796875,-0.1142755126953125,-0.2108
5,94000,74.07407407407905,0.146962890625,-1.3230096435546876,-0.2113
5,94500,72.00529731161149,0.2968017578125,-1.2246264648437502,-0.2088
5,95000,71.40479755289924,0.2196612548828124,-3.0791546630859368,-0.2044
5,95500,70.5052878965923,0.0187677001953125,-4.164342651367187,-0.1978
5,96000,70.97560359986556,-0.0626812744140625,1.716866455078125,-0.1889999999999999
5,96500,71.599045346065,-0.1075018310546875,4.695360717773439,-0.1787
5,97000,80.4842839612358,-0.120511474609375,3.678370971679688,-0.1666
5,97500,81.45350766575586,-0.1212994384765625,3.03082763671875,-0.1515
5,98000,82.04712543950902,0.003992919921875,2.3127062988281253,-0.1349
5,98500,83.56545961003238,0.0527099609375,1.53138427734375,-0.1173
5,99000,84.00488247629434,0.1010809326171875,-0.2036083984375,-0.0992
5,99500,84.50700848690373,0.077938232421875,-0.770289306640625,-0.0806
5,100000,85.34850640114108,0.043597412109375,-3.77019287109375,-0.0619
5,100500,85.2503071253014,-0.0140216064453125,-3.2015386962890617,-0.0431
5,101000,86.45894428151968,-0.026094970703125,-2.6335260009765618,-0.0246
5,101500,88.30611937521547,-0.0391693115234375,-3.252980346679688,-0.0067
5,102000,90.63444108762413,0.1547418212890625,-2.0175091552734368,0.0091
5,102500,92.00985359050956,0.244298095703125,-2.3677484130859368,0.0239
5,103000,92.53368208298544,0.208094482421875,-3.6916088867187504,0.0377
5,103500,92.80471586212629,0.055745849609375,-4.510999755859375,0.0503
5,104000,93.02325581395613,-0.0859954833984375,-4.041945190429688,0.0617
5,104500,90.3658076681269,-0.15245361328125,-3.3672735595703127,0.0721
5,105000,88.61953656713061,-0.10804931640625,-2.8107971191406254,0.0801
5,105500,86.99865872106821,0.0626202392578124,-2.347403564453125,0.0871
5,106000,84.15147265077547,0.0909173583984375,-1.8011376953125002,0.0939
5,106500,83.23776176427887,0.0410675048828125,7.471985473632812,0.1001
5,107000,84.0495106158688,-0.0726373291015625,8.200217895507812,0.1059
5,107500,87.33624454148321,-0.1091998291015625,6.527067260742188,0.1114
5,108000,84.80091389825364,-0.1475006103515625,5.396608886718751,0.1165
5,108500,83.5881207400208,-0.079166259765625,4.296696777343749,0.1214
5,109000,82.41758241758787,-0.0378759765625,2.481800537109375,0.1263
5,109500,80.50995189549872,0.0377166748046875,1.2696014404296876,0.1318
5,110000,79.89898829134256,0.1201654052734375,1.4425726318359375,0.1375
5,110500,79.26023778070687,0.1139520263671874,0.4963360595703126,0.1434
5,111000,82.01002515336084,0.1052301025390625,-2.622947998046876,0.1495
5,111500,83.65586557491355,0.0880865478515625,-3.530939331054688,0.1557
5,112000,85.3922789024207,-0.0038836669921875,-5.418070068359375,0.162
5,112500,87.5912408759194,-0.0968011474609375,-4.2716748046875,0.1686
5,113000,90.35832780358808,-0.14526611328125,-4.466340942382812,0.175
5,113500,92.48295454545764,0.0923944091796875,-3.85556640625,0.1807
5,114000,94.33702153109884,0.164976806640625,-3.683846435546875,0.1861
5,114500,95.69377990429692,0.0258184814453125,-2.803849487304688,0.1913
5,115000,95.69377990431344,-0.1673968505859375,6.61223388671875,0.1961
5,115500,98.32338822194536,-0.1828271484375,6.103510131835938,0.2007
5,116000,97.27410974527928,-0.150430908203125,4.917429809570312,0.2049
5,116500,95.12108262107898,-0.149345703125,4.005960693359375,0.2089
5,117000,92.59259259258906,-0.1442150878906249,2.274622802734375,0.2123
5,117500,86.28205128205107,-0.1309136962890625,1.9453619384765624,0.2153
5,118000,83.99187333613712,-0.108634033203125,1.0194305419921874,0.2179
5,118500,81.96721311475733,-0.0818927001953125,1.0219342041015629,0.2203
5,119000,81.44115488132289,-0.084818115234375,1.1979534912109375,0.2225
5,119500,82.0821784494463,-0.0663641357421875,0.56717041015625,0.2247
5,120000,82.9042945382124,-0.0070660400390624,0.2964007568359375,0.2263
5,120500,84.62623413257394,0.0881768798828125,3.461007690429688,0.2276
5,121000,89.50604732990664,0.06308349609375,3.0712646484375,0.2284
5,121500,90.58184109765948,0.0020574951171875,2.38226806640625,0.2285
5,122000,89.82203422783914,0.0061676025390625,1.7895434570312505,0.2281
5,122500,86.45533141210875,0.0152630615234375,0.9348028564453124,0.2273
5,123000,83.30803154126227,0.0423248291015625,-0.859747314453125,0.2266
5,123500,80.76110182003691,0.0263116455078125,-1.203033447265625,0.2261
5,124000,80.86253369272654,0.006004638671875,-1.46228515625,0.2257
5,124500,79.75617271925881,0.0190545654296875,-2.491439208984376,0.2255
5,125000,78.84362680683623,0.0146484375,-2.3866180419921883,0.2254
5,125500,78.84362680682473,-0.073699951171875,-0.9948052978515626,0.2251
5,126000,79.11165342176912,-0.0733251953125,1.0094049072265625,0.2247
5,126500,79.36528960370316,-0.0173779296875,0.2568939208984375,0.2239
5,127000,79.47019867549719,-0.0503582763671875,-0.862493896484375,0.2225
5,127500,77.8148194427109,-0.048065185546875,-1.1694122314453126,0.2207
5,128000,75.47169811321145,-0.0187591552734375,-1.9483795166015625,0.2186
5,128500,74.71791866869403,0.104185791015625,-3.455109252929688,0.2161
5,129000,74.25951439864075,0.34894775390625,-3.3334857177734376,0.2137
5,129500,72.72727272727874,0.2021636962890625,-1.7416168212890626,0.2109
5,130000,73.19486893474655,0.126094970703125,-3.4332214355468738,0.2076
5,130500,73.61963190183559,0.077427978515625,-4.040158081054688,0.2034
5,131000,76.00591697548998,-0.0043988037109375,1.2018640136718752,0.1981
5,131500,77.97442927332709,-0.088466796875,5.1226025390625,0.1917
5,132000,80.2693934173207,-0.06118896484375,4.189254150390624,0.1842
5,132500,83.68200836820263,-0.082264404296875,0.7038354492187501,0.1761
5,133000,82.85344185246716,-0.0694775390625,-0.4681805419921874,0.1676
5,133500,82.23978263330514,-0.0769287109375,-0.33118408203125,0.1587
5,134000,82.6446280991737,0.0380535888671874,-0.4581488037109375,0.1495
5,134500,83.1019283746536,0.25312255859375,-1.727191162109375,0.1401
5,135000,84.36231884057956,0.1467449951171875,-0.70736572265625,0.1307
5,135500,86.9565217391379,0.0688482666015625,-2.8056500244140627,0.1217
5,136000,90.08172605425644,0.055355224609375,-3.0465216064453124,0.1137
5,136500,90.3106259624938,-0.0029925537109375,-3.516984252929688,0.1065
5,137000,90.44389036508557,-0.0714801025390625,-3.233612060546875,0.1008
5,137500,90.63444108760856,-0.101708984375,-3.596937255859375,0.0968
5,138000,89.46497314285747,-0.140230712890625,1.0145794677734377,0.0946
5,138500,88.93853174454846,-0.121285400390625,-2.4622875976562497,0.094
5,139000,88.30038473429113,-0.12651611328125,2.943355712890625,0.095
5,139500,87.20930232558291,-0.0018212890625,6.757515869140625,0.0974
5,140000,91.25155334635544,0.0875506591796875,5.797597045898438,0.1009999999999999
5,140500,89.71037269869483,0.1122882080078125,4.939737548828125,0.1057
5,141000,88.02552719200294,0.1345819091796875,3.987020874023437,0.1115
5,141500,87.08272859216706,0.1209600830078125,3.1291986083984376,0.1185
5,142000,86.78070756814367,0.1295989990234375,2.403047485351564,0.1266
5,142500,87.0297780549024,0.0470916748046875,1.1000238037109376,0.1355
5,143000,87.61297376092976,0.025833740234375,0.761719970703125,0.1447
5,143500,89.28571428572597,-0.0712396240234375,-1.6529876708984377,0.1542
5,144000,90.4179273827501,-0.1089630126953125,-2.465289916992188,0.1633
5,144500,92.20716717094992,-0.1076470947265625,2.0831927490234383,0.1719
5,145000,94.94877049180424,0.058466796875,2.024669799804688,0.1795
5,145500,98.3289264939164,0.2744390869140625,0.6989239501953125,0.1861
5,146000,96.7741935483864,0.16148193359375,-0.8368505859375001,0.1919
5,146500,94.84752114245808,0.008658447265625,-0.1815850830078124,0.1971
5,147000,91.39315360898412,-0.06725830078125,0.3305963134765625,0.2017
5,147500,86.33093525179234,-0.128900146484375,0.3777362060546876,0.206
5,148000,81.31331176669278,-0.1341156005859375,-0.467449951171875,0.2101
5,148500,79.62430017039141,-0.1593365478515625,-3.4098828125,0.2139
5,149000,77.72020725388116,-0.11830078125,-4.512828369140625,0.2173
5,149500,78.20113908467575,0.1065350341796875,-4.592510375976564,0.2204
5,150000,78.43835447462452,0.17233154296875,-4.979517822265625,0.2231
5,150500,78.7401574803208,0.0356103515625,-5.435464477539061,0.2254
5,151000,79.21134858142199,-0.0749591064453125,-4.8109729003906265,0.2271
5,151500,79.67444337913463,-0.094495849609375,-4.010969848632813,0.2283
5,152000,80.53691275167736,-0.0243634033203125,-3.3446142578125,0.2286
5,152500,82.2483776138444,0.0004742431640624,-2.7920147705078127,0.2281
5,153000,83.68801652892809,-0.0215728759765625,-2.331917114257813,0.2265
5,153500,85.29475982533323,-0.023111572265625,-1.9497174072265624,0.2237
5,154000,87.33624454148321,-0.0805810546875,-0.1951202392578125,0.2209
5,154500,90.1995972164021,0.0281243896484374,7.539373779296875,0.2167
5,155000,92.8084352448072,0.0671966552734375,7.963719482421875,0.2105
5,155500,94.34438978250672,0.0925677490234374,6.466923217773438,0.2022
5,156000,92.73570324574274,0.004266357421875,5.238607788085936,0.1917
5,156500,90.88266765509913,-0.031796875,4.248112792968751,0.1793
5,157000,88.58183423463095,-0.008790283203125,3.5457348632812504,0.1648
5,157500,86.08321377331387,0.0170758056640625,2.317869262695313,0.1483
5,158000,83.23494588458118,-0.0104486083984375,0.722073974609375,0.1301
5,158500,82.78726128240964,0.0829815673828125,0.2403009033203125,0.1101
5,159000,82.56123764504132,0.0610382080078125,-0.767264404296875,0.0891
5,159500,83.79888268156328,-0.030567626953125,-1.3586163330078125,0.0671
5,160000,84.11901324461797,-0.030054931640625,-5.6736767578124985,0.0445
5,160500,85.08109428431733,0.022513427734375,-6.227159423828125,0.0229
5,161000,86.95652173912356,0.0072918701171875,-4.804962158203125,0.0013
5,161500,90.27291775799006,-0.063463134765625,3.42632080078125,-0.0214
5,162000,93.25841950479229,-0.049029541015625,3.169302978515625,-0.0436
5,162500,94.75173764927824,0.0025518798828125,2.108951416015625,-0.0649
5,163000,94.913979402752,0.0427532958984375,1.8626947021484368,-0.0848
5,163500,94.04388714733052,0.0102685546875,1.1240771484375,-0.103
5,164000,92.4250610346322,-0.0284039306640625,0.49060546875,-0.1195
5,164500,91.1987118982884,-0.0491424560546875,-1.5545904541015625,-0.1341
5,165000,90.13426663563752,0.0532623291015625,-4.381658935546875,-0.1466
5,165500,89.15304606240689,0.2065966796875,-5.392624511718752,-0.1567
5,166000,87.77442286614973,0.0940765380859375,-4.858675537109376,-0.165
5,166500,87.6364350383513,0.0166986083984375,-4.172297973632813,-0.1709
5,167000,87.95184642915241,-0.033408203125,-3.4646276855468754,-0.1747
5,167500,88.88888888887989,-0.0968768310546875,-2.900729370117188,-0.1763
5,168000,89.18968253968922,-0.08886962890625,-2.420953369140625,-0.1775
5,168500,90.05717537395029,-0.056663818359375,-2.022200927734376,-0.177
5,169000,91.3693814267815,0.0851043701171875,-1.6906219482421874,-0.1749
5,169500,93.16770186335324,0.2056365966796874,-1.4146661376953125,-0.1715
5,170000,96.60692963003432,0.152904052734375,-1.16931884765625,-0.1671
5,170500,95.82367874451776,0.058543701171875,-0.985748291015625,-0.1621
5,171000,93.04567541302154,0.0092425537109375,-0.7939642333984375,-0.1571
5,171500,87.46355685130743,-0.0804779052734375,-0.6788104248046876,-0.1517
5,172000,84.07546924989492,-0.2089947509765625,6.479600219726563,-0.1458
5,172500,85.75611551992121,-0.177408447265625,7.08852783203125,-0.1397
5,173000,88.19033674962677,-0.144549560546875,5.171884765625,-0.1332
5,173500,87.84773060029379,-0.137821044921875,4.328360595703124,-0.1257
5,174000,86.91981517750358,-0.0528021240234375,2.3170587158203126,-0.1176
5,174500,86.37293938153758,0.0708648681640625,0.3917803955078125,-0.1087
5,175000,85.95988538682205,0.13257080078125,-3.2491430664062486,-0.0987
5,175500,87.03332349111807,-0.0117730712890625,-3.825941162109375,-0.0873
5,176000,87.85223723951408,-0.0959466552734375,-3.729402465820313,-0.0745
5,176500,89.21150496634729,-0.0508770751953124,0.2778082275390625,-0.0621
5,177000,91.54003142023292,0.0318389892578125,6.741552734375,-0.0485
5,177500,96.4630225080276,-0.0386444091796875,6.901650390625,-0.0335
5,178000,97.6158579124386,-0.03980224609375,5.684048461914062,-0.0173
5,178500,95.81583967025988,-0.0535003662109375,3.562067260742188,0.0004
5,179000,93.11128526645304,0.01291259765625,-0.4413214111328125,0.0193
5,179500,89.28571428571091,0.0263916015625,-3.630924072265625,0.039
5,180000,83.72959183673268,0.01658447265625,-3.4449456787109374,0.0593
5,180500,80.95411480586901,-0.037869873046875,-3.3135589599609374,0.0801
5,181000,78.02340702210607,-0.0618585205078125,1.4662298583984374,0.1007
5,181500,78.85455729189381,-0.02470458984375,3.703426513671875,0.1201
5,182000,79.82870260086688,0.0032916259765625,2.9113116455078125,0.1391
5,182500,81.96721311475733,-0.012281494140625,1.8196826171875,0.1573
5,183000,80.15612802497523,0.186678466796875,0.7982861328125,0.1744
5,183500,79.12729294051556,0.18027099609375,-0.1521417236328125,0.1905
5,184000,77.82101167315601,0.1859698486328124,-0.2585870361328124,0.2072
5,184500,77.28763843161062,0.083189697265625,-0.7830108642578125,0.2223
5,185000,77.10168459509046,-0.0573907470703125,-5.549705200195314,0.2357
5,185500,79.15567282321501,-0.093587646484375,-5.774155883789063,0.2471
5,186000,80.38081840610022,-0.0070672607421875,-4.8335241699218745,0.2563
5,186500,81.60433923485614,-0.0010693359375,1.1982263183593749,0.2642
5,187000,83.68200836820263,-0.0075567626953125,4.2541918945312505,0.2698
5,187500,87.6967670562332,-0.0226611328125,1.2408905029296875,0.2733
5,188000,87.51706712150721,-0.0618841552734375,-1.2342010498046876,0.2747
5,188500,85.95988538682205,-0.0664923095703124,-1.5681170654296877,0.2746
5,189000,83.39111747850698,-0.097275390625,-1.3708428955078122,0.2741
5,189500,81.6595744680858,-0.086021728515625,-1.2696771240234377,0.2725
5,190000,79.7872340425582,-0.07150146484375,-1.4400555419921877,0.2701
5,190500,77.25964821238435,-0.0991693115234375,0.38411865234375,0.267
5,191000,76.81930942004824,-0.108280029296875,4.1759014892578135,0.2633
5,191500,76.43312101911138,-0.0436651611328125,2.5450933837890624,0.2595
5,192000,76.20905945876027,0.0061456298828125,-0.5924359130859375,0.2554
5,192500,75.93699499990332,0.2680926513671875,-1.42204833984375,0.2517
5,193000,74.90636704119433,0.2446868896484375,-1.188592529296875,0.2486
5,193500,74.35434770575941,0.062161865234375,-0.849029541015625,0.2461
5,194000,73.89162561576245,-0.0297406005859375,-0.1183355712890624,0.2439
5,194500,75.20999313930486,-0.074656982421875,-1.247841796875,0.2432
5,195000,76.41164118370233,-0.1183111572265625,-0.376474609375,0.2439
5,195500,78.02340702210607,-0.1254620361328124,2.3623443603515626,0.246
5,196000,80.23651063146423,-0.12265380859375,4.239417724609375,0.2491
5,196500,83.16675603217101,-0.090843505859375,4.420543212890625,0.253
5,197000,85.90586771719629,-0.0547698974609375,3.317708740234375,0.2575
5,197500,87.08272859216706,-0.04382568359375,1.548245849609375,0.2626
5,198000,86.60967111839241,0.015343017578125,-0.5192083740234374,0.2675
5,198500,86.6427765944088,0.1044989013671875,-0.4536303710937501,0.2727
5,199000,86.9565217391379,0.231602783203125,-2.9240740966796874,0.2782
5,199500,86.22188905546923,0.1007635498046875,-3.9151715087890624,0.2845
5,200000,85.44505682095203,0.062481689453125,-1.16332763671875,0.2911
5,200500,86.00521728819623,0.0631988525390625,3.392528076171875,0.2976
5,201000,89.82035928143624,0.0710968017578125,2.6172766113281245,0.304
5,201500,90.18504344694504,0.042286376953125,1.9871923828125,0.3101
5,202000,91.12395668069486,0.005948486328125,-0.6713250732421876,0.3155
5,202500,91.74311926605556,-0.07318603515625,-1.3009893798828125,0.3203
5,203000,91.74311926605556,-0.0790863037109375,-2.37401611328125,0.3244
5,203500,91.47068695456744,-0.0862530517578125,-3.7063214111328127,0.3277
5,204000,91.1902735112306,-0.0446185302734375,-4.45079833984375,0.3301
5,204500,90.91005780982732,0.0044915771484375,-4.2096838378906245,0.3318
5,205000,90.6377368854664,0.067891845703125,-3.8307104492187496,0.3329999999999999
5,205500,90.90909090909528,0.0246484375,-3.275520629882813,0.3335
5,206000,91.297117516636,0.04642822265625,-2.731115112304688,0.3327
5,206500,91.62813282038196,-0.0120501708984375,-2.2789654541015625,0.3302
5,207000,91.93684712255843,-0.053365478515625,-1.903353271484375,0.3259
5,207500,92.44992295839742,-0.0976434326171875,-1.59093505859375,0.3197
5,208000,92.11387032432609,-0.0225213623046875,-1.3311114501953123,0.3119
5,208500,91.19701093223748,-0.0113616943359375,0.9132409667968748,0.3026
5,209000,90.56286871024176,0.003817138671875,2.72268310546875,0.2918
5,209500,92.30769230769552,-0.0011663818359375,1.5859539794921875,0.2795
5,210000,92.6792058019205,0.0071148681640625,-0.5270574951171876,0.2657
5,210500,91.66328007538677,0.0037109375,-1.45724853515625,0.2506
5,211000,90.30488564563964,0.028980712890625,-1.2577862548828125,0.2341
5,211500,88.23529411763876,0.0645660400390625,-1.4390252685546874,0.2164
5,212000,87.10879373456578,0.024798583984375,-1.2296820068359375,0.1975
5,212500,87.69770249788256,-0.0452056884765625,3.1428643798828126,0.1787
5,213000,89.40865041127611,-0.0196527099609375,8.799645385742188,0.159
5,213500,92.87925696593396,-0.0415802001953125,8.145618286132812,0.1387
5,214000,95.13848213539804,-0.0582574462890625,6.791361083984375,0.118
5,214500,94.3697337042888,-0.0708984375,5.331602783203127,0.0972
5,215000,92.54592026824812,-0.06098388671875,3.82179443359375,0.0768
5,215500,89.4187779433767,-0.0489544677734375,-1.96873046875,0.0569
5,216000,87.2076718719574,-0.0341741943359375,-5.22447021484375,0.0377
5,216500,85.28985507246466,-0.032615966796875,-5.000802001953125,0.0195
5,217000,83.38504936531255,-0.008206787109375,-4.6453076171875,0.0024
5,217500,84.62623413257394,-0.0312762451171875,-4.157108764648438,-0.0133
5,218000,84.85278311630319,0.1522174072265625,-3.518462524414064,-0.0276
5,218500,85.21181522277226,0.153751220703125,-2.930703125,-0.0404
5,219000,85.95988538682205,0.0413922119140625,-2.4429742431640618,-0.0519
5,219500,86.06323457470221,-0.029072265625,-2.03813232421875,-0.0623
5,220000,85.81711608971281,-0.090267333984375,-1.5079504394531251,-0.0729
5,220500,85.91857917195226,-0.1001513671875,6.9080993652343725,-0.0825
5,221000,89.95502248875154,-0.07097900390625,6.770717163085937,-0.0912
5,221500,89.7501025272125,-0.0762438964843749,4.966741943359375,-0.0993
5,222000,89.51873798846884,-0.0975836181640625,1.4228765869140625,-0.107
5,222500,89.19372294371973,-0.0036651611328124,-2.6843896484375005,-0.1145
5,223000,86.58008658008859,0.0044287109375,-3.029633178710938,-0.1219
5,223500,84.58958517210999,0.0446484375,-3.4512213134765624,-0.1285
5,224000,83.15255631546333,0.049027099609375,-3.2728564453125,-0.1353
5,224500,82.75862068966555,0.0817608642578125,-2.7303936767578123,-0.1426
5,225000,84.38003321285666,0.0268572998046875,1.7450927734375,-0.1507
5,225500,87.40252382178144,-0.0161810302734375,6.567210083007812,-0.1598
5,226000,90.8972630999766,0.0221160888671875,5.372340087890626,-0.1695
5,226500,90.77155824509084,0.06051513671875,2.453013305664064,-0.1797
5,227000,90.98312897871936,0.0830316162109374,2.3343322753906253,-0.1903
5,227500,90.4618357750923,0.0101593017578125,2.1425805664062505,-0.2013
5,228000,89.59799992063392,-0.0088507080078125,0.2528778076171875,-0.2124
5,228500,88.49557522123932,-0.05996337890625,-3.8101403808593752,-0.2237
5,229000,87.42747210465099,0.0076251220703125,-4.266087036132813,-0.2348
5,229500,87.57242089014522,0.024456787109375,-4.06038818359375,-0.2457
5,230000,88.75739644971323,-0.0061035156249999,-3.72890625,-0.2562
5,230500,89.41877794336153,-0.162681884765625,-2.582587890625,-0.2661
5,231000,91.3362681739228,0.012529296875,0.6607684326171874,-0.2764
5,231500,92.51741506805098,0.06869873046875,-0.502108154296875,-0.286
5,232000,93.35105204871483,-0.03723388671875,-2.5679833984375,-0.2948
5,232500,95.23809523809592,-0.0416314697265625,-2.2791247558593755,-0.3026
5,233000,95.92380952380958,0.1273077392578125,-1.900172119140625,-0.3094
5,233500,95.70557961784132,0.0761981201171875,-1.585791015625,-0.3154
5,234000,95.60052418249133,0.019649658203125,-1.324649047851563,-0.3205
5,234500,95.56699319275188,-0.066640625,1.4582891845703123,-0.3247
5,235000,94.63722397476124,-0.1518634033203125,8.050007934570312,-0.3282
5,235500,96.65992263904975,-0.156749267578125,8.080336303710938,-0.331
5,236000,96.63132632759806,-0.1276873779296875,6.861074829101563,-0.3331
5,236500,93.98453617827158,-0.1012652587890625,4.464119873046875,-0.3345
5,237000,86.70520231213783,-0.0412451171875,-0.9288128662109376,-0.3351
5,237500,82.35213247929916,-0.0041259765625,-3.418178100585937,-0.3349
5,238000,80.23850654778519,0.010677490234375,-3.3950518798828124,-0.3343
5,238500,77.31958762887061,-0.0081146240234375,-3.159716796875,-0.3331
5,239000,77.45424758251562,0.1070721435546875,-3.624659423828125,-0.3317
5,239500,77.78118672148176,0.271455078125,-0.6859179687499999,-0.3303
5,240000,79.15567282321501,0.102252197265625,5.618562622070313,-0.3291
5,240500,82.81259829698928,0.020775146484375,5.929449462890625,-0.3279999999999999
5,241000,84.26241036683078,-0.02420654296875,4.1222821044921885,-0.3273
5,241500,84.50704225351683,-0.030030517578125,1.475467529296875,-0.3271
5,242000,84.93795635000805,-0.078409423828125,-1.1996020507812502,-0.3278
5,242500,85.54110900216375,-0.0854315185546875,-3.871568603515625,-0.3292
5,243000,86.12712365469,-0.0777423095703125,-5.174099731445311,-0.3317
5,243500,86.45533141209458,-0.097347412109375,-4.283938598632812,-0.3352
